3996.30929	1.00012
3994.38057	1.00012
3992.45185	1.00012
3990.52313	1.00012
3988.59441	1.00012
3986.66569	1.00012
3984.73697	1.00012
3982.80825	1.00012
3980.87953	1.00012
3978.95081	1.00012
3977.02209	1.00012
3975.09337	1.00018
3973.16465	1.00022
3971.23593	1.00023
3969.30720	1.00018
3967.37848	1.00010
3965.44976	1.00008
3963.52104	1.00015
3961.59232	1.00022
3959.66360	1.00022
3957.73488	1.00022
3955.80616	1.00022
3953.87744	1.00019
3951.94872	1.00004
3950.02000	0.99973
3948.09128	0.99939
3946.16256	0.99917
3944.23384	0.99909
3942.30511	0.99905
3940.37639	0.99901
3938.44767	0.99900
3936.51895	0.99897
3934.59023	0.99887
3932.66151	0.99878
3930.73279	0.99871
3928.80407	0.99864
3926.87535	0.99859
3924.94663	0.99868
3923.01791	0.99890
3921.08919	0.99915
3919.16047	0.99933
3917.23175	0.99930
3915.30302	0.99910
3913.37430	0.99891
3911.44558	0.99881
3909.51686	0.99872
3907.58814	0.99865
3905.65942	0.99865
3903.73070	0.99862
3901.80198	0.99856
3899.87326	0.99851
3897.94454	0.99835
3896.01582	0.99813
3894.08710	0.99798
3892.15838	0.99787
3890.22966	0.99778
3888.30094	0.99771
3886.37221	0.99766
3884.44349	0.99766
3882.51477	0.99759
3880.58605	0.99738
3878.65733	0.99704
3876.72861	0.99674
3874.79989	0.99678
3872.87117	0.99709
3870.94245	0.99725
3869.01373	0.99728
3867.08501	0.99741
3865.15629	0.99757
3863.22757	0.99774
3861.29885	0.99786
3859.37012	0.99789
3857.44140	0.99795
3855.51268	0.99799
3853.58396	0.99794
3851.65524	0.99784
3849.72652	0.99762
3847.79780	0.99734
3845.86908	0.99713
3843.94036	0.99696
3842.01164	0.99683
3840.08292	0.99666
3838.15420	0.99652
3836.22548	0.99662
3834.29676	0.99669
3832.36803	0.99645
3830.43931	0.99617
3828.51059	0.99608
3826.58187	0.99616
3824.65315	0.99620
3822.72443	0.99624
3820.79571	0.99641
3818.86699	0.99656
3816.93827	0.99662
3815.00955	0.99671
3813.08083	0.99683
3811.15211	0.99694
3809.22339	0.99708
3807.29467	0.99728
3805.36594	0.99753
3803.43722	0.99777
3801.50850	0.99791
3799.57978	0.99803
3797.65106	0.99824
3795.72234	0.99837
3793.79362	0.99845
3791.86490	0.99863
3789.93618	0.99897
3788.00746	0.99933
3786.07874	0.99958
3784.15002	0.99980
3782.22130	0.99995
3780.29258	0.99996
3778.36386	0.99990
3776.43513	0.99972
3774.50641	0.99939
3772.57769	0.99913
3770.64897	0.99900
3768.72025	0.99888
3766.79153	0.99871
3764.86281	0.99870
3762.93409	0.99878
3761.00537	0.99870
3759.07665	0.99851
3757.14793	0.99842
3755.21921	0.99847
3753.29049	0.99858
3751.36177	0.99869
3749.43304	0.99875
3747.50432	0.99880
3745.57560	0.99886
3743.64688	0.99887
3741.71816	0.99880
3739.78944	0.99861
3737.86072	0.99830
3735.93200	0.99799
3734.00328	0.99784
3732.07456	0.99786
3730.14584	0.99790
3728.21712	0.99794
3726.28840	0.99802
3724.35968	0.99797
3722.43095	0.99786
3720.50223	0.99792
3718.57351	0.99811
3716.64479	0.99832
3714.71607	0.99848
3712.78735	0.99865
3710.85863	0.99886
3708.92991	0.99918
3707.00119	0.99949
3705.07247	0.99959
3703.14375	0.99954
3701.21503	0.99939
3699.28631	0.99920
3697.35759	0.99903
3695.42886	0.99897
3693.50014	0.99884
3691.57142	0.99855
3689.64270	0.99818
3687.71398	0.99774
3685.78526	0.99727
3683.85654	0.99683
3681.92782	0.99636
3679.99910	0.99582
3678.07038	0.99533
3676.14166	0.99494
3674.21294	0.99455
3672.28422	0.99414
3670.35550	0.99380
3668.42678	0.99343
3666.49805	0.99284
3664.56933	0.99209
3662.64061	0.99126
3660.71189	0.99043
3658.78317	0.98960
3656.85445	0.98868
3654.92573	0.98756
3652.99701	0.98634
3651.06829	0.98512
3649.13957	0.98388
3647.21085	0.98259
3645.28213	0.98110
3643.35341	0.97938
3641.42469	0.97751
3639.49596	0.97561
3637.56724	0.97354
3635.63852	0.97109
3633.70980	0.96830
3631.78108	0.96517
3629.85236	0.96139
3627.92364	0.95674
3625.99492	0.95115
3624.06620	0.94476
3622.13748	0.93773
3620.20876	0.93022
3618.28004	0.92243
3616.35132	0.91470
3614.42260	0.90733
3612.49387	0.90062
3610.56515	0.89478
3608.63643	0.88979
3606.70771	0.88575
3604.77899	0.88284
3602.85027	0.88110
3600.92155	0.88048
3598.99283	0.88077
3597.06411	0.88179
3595.13539	0.88337
3593.20667	0.88516
3591.27795	0.88683
3589.34923	0.88818
3587.42051	0.88910
3585.49178	0.88955
3583.56306	0.88951
3581.63434	0.88904
3579.70562	0.88820
3577.77690	0.88707
3575.84818	0.88567
3573.91946	0.88404
3571.99074	0.88226
3570.06202	0.88041
3568.13330	0.87845
3566.20458	0.87638
3564.27586	0.87419
3562.34714	0.87186
3560.41842	0.86937
3558.48970	0.86676
3556.56097	0.86409
3554.63225	0.86135
3552.70353	0.85861
3550.77481	0.85600
3548.84609	0.85352
3546.91737	0.85118
3544.98865	0.84901
3543.05993	0.84708
3541.13121	0.84538
3539.20249	0.84393
3537.27377	0.84277
3535.34505	0.84192
3533.41633	0.84142
3531.48761	0.84126
3529.55888	0.84139
3527.63016	0.84165
3525.70144	0.84195
3523.77272	0.84229
3521.84400	0.84270
3519.91528	0.84313
3517.98656	0.84353
3516.05784	0.84386
3514.12912	0.84415
3512.20040	0.84438
3510.27168	0.84453
3508.34296	0.84459
3506.41424	0.84457
3504.48552	0.84448
3502.55679	0.84428
3500.62807	0.84397
3498.69935	0.84355
3496.77063	0.84306
3494.84191	0.84252
3492.91319	0.84189
3490.98447	0.84115
3489.05575	0.84032
3487.12703	0.83948
3485.19831	0.83865
3483.26959	0.83774
3481.34087	0.83673
3479.41215	0.83565
3477.48343	0.83450
3475.55470	0.83327
3473.62598	0.83197
3471.69726	0.83060
3469.76854	0.82920
3467.83982	0.82780
3465.91110	0.82639
3463.98238	0.82497
3462.05366	0.82358
3460.12494	0.82222
3458.19622	0.82086
3456.26750	0.81947
3454.33878	0.81800
3452.41006	0.81647
3450.48134	0.81493
3448.55262	0.81341
3446.62389	0.81186
3444.69517	0.81027
3442.76645	0.80868
3440.83773	0.80708
3438.90901	0.80544
3436.98029	0.80374
3435.05157	0.80199
3433.12285	0.80019
3431.19413	0.79836
3429.26541	0.79657
3427.33669	0.79483
3425.40797	0.79315
3423.47925	0.79152
3421.55053	0.78988
3419.62180	0.78827
3417.69308	0.78669
3415.76436	0.78514
3413.83564	0.78370
3411.90692	0.78243
3409.97820	0.78129
3408.04948	0.78024
3406.12076	0.77927
3404.19204	0.77843
3402.26332	0.77767
3400.33460	0.77688
3398.40588	0.77606
3396.47716	0.77524
3394.54844	0.77442
3392.61971	0.77359
3390.69099	0.77274
3388.76227	0.77182
3386.83355	0.77082
3384.90483	0.76980
3382.97611	0.76879
3381.04739	0.76781
3379.11867	0.76684
3377.18995	0.76587
3375.26123	0.76496
3373.33251	0.76414
3371.40379	0.76340
3369.47507	0.76277
3367.54635	0.76223
3365.61762	0.76178
3363.68890	0.76142
3361.76018	0.76115
3359.83146	0.76097
3357.90274	0.76083
3355.97402	0.76068
3354.04530	0.76049
3352.11658	0.76028
3350.18786	0.76006
3348.25914	0.75989
3346.33042	0.75981
3344.40170	0.75982
3342.47298	0.75990
3340.54426	0.76005
3338.61553	0.76024
3336.68681	0.76053
3334.75809	0.76096
3332.82937	0.76152
3330.90065	0.76221
3328.97193	0.76299
3327.04321	0.76388
3325.11449	0.76480
3323.18577	0.76571
3321.25705	0.76652
3319.32833	0.76721
3317.39961	0.76778
3315.47089	0.76826
3313.54217	0.76865
3311.61345	0.76900
3309.68472	0.76938
3307.75600	0.76978
3305.82728	0.77010
3303.89856	0.77028
3301.96984	0.77033
3300.04112	0.77028
3298.11240	0.77013
3296.18368	0.76989
3294.25496	0.76959
3292.32624	0.76922
3290.39752	0.76878
3288.46880	0.76819
3286.54008	0.76740
3284.61136	0.76643
3282.68263	0.76530
3280.75391	0.76403
3278.82519	0.76261
3276.89647	0.76100
3274.96775	0.75921
3273.03903	0.75731
3271.11031	0.75528
3269.18159	0.75304
3267.25287	0.75058
3265.32415	0.74799
3263.39543	0.74534
3261.46671	0.74263
3259.53799	0.73987
3257.60927	0.73716
3255.68054	0.73461
3253.75182	0.73225
3251.82310	0.73008
3249.89438	0.72806
3247.96566	0.72624
3246.03694	0.72467
3244.10822	0.72339
3242.17950	0.72235
3240.25078	0.72144
3238.32206	0.72059
3236.39334	0.71980
3234.46462	0.71906
3232.53590	0.71832
3230.60718	0.71760
3228.67845	0.71691
3226.74973	0.71622
3224.82101	0.71546
3222.89229	0.71461
3220.96357	0.71375
3219.03485	0.71296
3217.10613	0.71230
3215.17741	0.71175
3213.24869	0.71132
3211.31997	0.71106
3209.39125	0.71101
3207.46253	0.71119
3205.53381	0.71157
3203.60509	0.71209
3201.67637	0.71268
3199.74764	0.71332
3197.81892	0.71397
3195.89020	0.71459
3193.96148	0.71519
3192.03276	0.71579
3190.10404	0.71641
3188.17532	0.71703
3186.24660	0.71772
3184.31788	0.71855
3182.38916	0.71960
3180.46044	0.72093
3178.53172	0.72254
3176.60300	0.72444
3174.67428	0.72659
3172.74555	0.72893
3170.81683	0.73140
3168.88811	0.73398
3166.95939	0.73664
3165.03067	0.73937
3163.10195	0.74213
3161.17323	0.74482
3159.24451	0.74740
3157.31579	0.74985
3155.38707	0.75224
3153.45835	0.75460
3151.52963	0.75698
3149.60091	0.75940
3147.67219	0.76188
3145.74346	0.76444
3143.81474	0.76708
3141.88602	0.76980
3139.95730	0.77257
3138.02858	0.77533
3136.09986	0.77799
3134.17114	0.78055
3132.24242	0.78295
3130.31370	0.78519
3128.38498	0.78723
3126.45626	0.78905
3124.52754	0.79058
3122.59882	0.79173
3120.67010	0.79249
3118.74137	0.79283
3116.81265	0.79268
3114.88393	0.79193
3112.95521	0.79051
3111.02649	0.78838
3109.09777	0.78552
3107.16905	0.78193
3105.24033	0.77766
3103.31161	0.77275
3101.38289	0.76724
3099.45417	0.76118
3097.52545	0.75473
3095.59673	0.74812
3093.66801	0.74166
3091.73929	0.73562
3089.81056	0.73023
3087.88184	0.72559
3085.95312	0.72179
3084.02440	0.71890
3082.09568	0.71691
3080.16696	0.71568
3078.23824	0.71506
3076.30952	0.71490
3074.38080	0.71509
3072.45208	0.71553
3070.52336	0.71614
3068.59464	0.71689
3066.66592	0.71772
3064.73720	0.71855
3062.80847	0.71937
3060.87975	0.72021
3058.95103	0.72114
3057.02231	0.72226
3055.09359	0.72363
3053.16487	0.72525
3051.23615	0.72707
3049.30743	0.72903
3047.37871	0.73114
3045.44999	0.73339
3043.52127	0.73569
3041.59255	0.73795
3039.66383	0.74012
3037.73511	0.74219
3035.80638	0.74417
3033.87766	0.74611
3031.94894	0.74808
3030.02022	0.75011
3028.09150	0.75221
3026.16278	0.75435
3024.23406	0.75650
3022.30534	0.75858
3020.37662	0.76056
3018.44790	0.76244
3016.51918	0.76421
3014.59046	0.76590
3012.66174	0.76750
3010.73302	0.76901
3008.80429	0.77040
3006.87557	0.77169
3004.94685	0.77280
3003.01813	0.77370
3001.08941	0.77444
2999.16069	0.77506
2997.23197	0.77555
2995.30325	0.77587
2993.37453	0.77605
2991.44581	0.77614
2989.51709	0.77617
2987.58837	0.77614
2985.65965	0.77610
2983.73093	0.77616
2981.80221	0.77639
2979.87348	0.77684
2977.94476	0.77757
2976.01604	0.77861
2974.08732	0.77994
2972.15860	0.78151
2970.22988	0.78331
2968.30116	0.78529
2966.37244	0.78740
2964.44372	0.78960
2962.51500	0.79188
2960.58628	0.79420
2958.65756	0.79646
2956.72884	0.79860
2954.80012	0.80060
2952.87139	0.80245
2950.94267	0.80408
2949.01395	0.80546
2947.08523	0.80657
2945.15651	0.80740
2943.22779	0.80795
2941.29907	0.80825
2939.37035	0.80836
2937.44163	0.80834
2935.51291	0.80824
2933.58419	0.80809
2931.65547	0.80795
2929.72675	0.80785
2927.79803	0.80787
2925.86930	0.80810
2923.94058	0.80861
2922.01186	0.80939
2920.08314	0.81041
2918.15442	0.81164
2916.22570	0.81305
2914.29698	0.81459
2912.36826	0.81616
2910.43954	0.81770
2908.51082	0.81916
2906.58210	0.82049
2904.65338	0.82165
2902.72466	0.82266
2900.79594	0.82354
2898.86721	0.82431
2896.93849	0.82498
2895.00977	0.82559
2893.08105	0.82613
2891.15233	0.82660
2889.22361	0.82703
2887.29489	0.82744
2885.36617	0.82777
2883.43745	0.82797
2881.50873	0.82802
2879.58001	0.82790
2877.65129	0.82759
2875.72257	0.82707
2873.79385	0.82633
2871.86513	0.82540
2869.93640	0.82431
2868.00768	0.82311
2866.07896	0.82186
2864.15024	0.82065
2862.22152	0.81958
2860.29280	0.81871
2858.36408	0.81813
2856.43536	0.81790
2854.50664	0.81800
2852.57792	0.81841
2850.64920	0.81913
2848.72048	0.82018
2846.79176	0.82150
2844.86304	0.82302
2842.93431	0.82467
2841.00559	0.82640
2839.07687	0.82820
2837.14815	0.83001
2835.21943	0.83178
2833.29071	0.83347
2831.36199	0.83505
2829.43327	0.83651
2827.50455	0.83787
2825.57583	0.83920
2823.64711	0.84051
2821.71839	0.84179
2819.78967	0.84303
2817.86095	0.84421
2815.93222	0.84535
2814.00350	0.84645
2812.07478	0.84751
2810.14606	0.84857
2808.21734	0.84964
2806.28862	0.85072
2804.35990	0.85180
2802.43118	0.85289
2800.50246	0.85396
2798.57374	0.85501
2796.64502	0.85601
2794.71630	0.85695
2792.78758	0.85781
2790.85886	0.85861
2788.93013	0.85937
2787.00141	0.86011
2785.07269	0.86079
2783.14397	0.86137
2781.21525	0.86180
2779.28653	0.86213
2777.35781	0.86238
2775.42909	0.86255
2773.50037	0.86269
2771.57165	0.86283
2769.64293	0.86304
2767.71421	0.86330
2765.78549	0.86361
2763.85677	0.86398
2761.92805	0.86444
2759.99932	0.86497
2758.07060	0.86556
2756.14188	0.86618
2754.21316	0.86683
2752.28444	0.86754
2750.35572	0.86830
2748.42700	0.86910
2746.49828	0.86990
2744.56956	0.87067
2742.64084	0.87137
2740.71212	0.87200
2738.78340	0.87256
2736.85468	0.87307
2734.92596	0.87352
2732.99723	0.87392
2731.06851	0.87427
2729.13979	0.87456
2727.21107	0.87478
2725.28235	0.87497
2723.35363	0.87513
2721.42491	0.87525
2719.49619	0.87532
2717.56747	0.87541
2715.63875	0.87554
2713.71003	0.87572
2711.78131	0.87593
2709.85259	0.87617
2707.92387	0.87648
2705.99514	0.87683
2704.06642	0.87719
2702.13770	0.87757
2700.20898	0.87800
2698.28026	0.87843
2696.35154	0.87883
2694.42282	0.87915
2692.49410	0.87940
2690.56538	0.87964
2688.63666	0.87989
2686.70794	0.88015
2684.77922	0.88039
2682.85050	0.88056
2680.92178	0.88071
2678.99305	0.88086
2677.06433	0.88104
2675.13561	0.88123
2673.20689	0.88143
2671.27817	0.88166
2669.34945	0.88190
2667.42073	0.88210
2665.49201	0.88229
2663.56329	0.88248
2661.63457	0.88269
2659.70585	0.88291
2657.77713	0.88313
2655.84841	0.88335
2653.91969	0.88360
2651.99097	0.88386
2650.06224	0.88414
2648.13352	0.88440
2646.20480	0.88467
2644.27608	0.88496
2642.34736	0.88529
2640.41864	0.88566
2638.48992	0.88608
2636.56120	0.88653
2634.63248	0.88699
2632.70376	0.88740
2630.77504	0.88774
2628.84632	0.88804
2626.91760	0.88830
2624.98888	0.88853
2623.06015	0.88870
2621.13143	0.88881
2619.20271	0.88884
2617.27399	0.88879
2615.34527	0.88869
2613.41655	0.88859
2611.48783	0.88852
2609.55911	0.88851
2607.63039	0.88857
2605.70167	0.88867
2603.77295	0.88882
2601.84423	0.88903
2599.91551	0.88931
2597.98679	0.88971
2596.05806	0.89019
2594.12934	0.89072
2592.20062	0.89128
2590.27190	0.89186
2588.34318	0.89244
2586.41446	0.89299
2584.48574	0.89350
2582.55702	0.89396
2580.62830	0.89441
2578.69958	0.89485
2576.77086	0.89527
2574.84214	0.89567
2572.91342	0.89600
2570.98470	0.89625
2569.05597	0.89642
2567.12725	0.89654
2565.19853	0.89664
2563.26981	0.89673
2561.34109	0.89683
2559.41237	0.89698
2557.48365	0.89716
2555.55493	0.89734
2553.62621	0.89755
2551.69749	0.89781
2549.76877	0.89813
2547.84005	0.89848
2545.91133	0.89886
2543.98261	0.89929
2542.05389	0.89976
2540.12516	0.90027
2538.19644	0.90081
2536.26772	0.90135
2534.33900	0.90191
2532.41028	0.90246
2530.48156	0.90301
2528.55284	0.90356
2526.62412	0.90409
2524.69540	0.90457
2522.76668	0.90496
2520.83796	0.90528
2518.90924	0.90557
2516.98052	0.90586
2515.05180	0.90615
2513.12307	0.90641
2511.19435	0.90663
2509.26563	0.90683
2507.33691	0.90703
2505.40819	0.90724
2503.47947	0.90747
2501.55075	0.90776
2499.62203	0.90814
2497.69331	0.90861
2495.76459	0.90914
2493.83587	0.90969
2491.90715	0.91022
2489.97843	0.91072
2488.04971	0.91117
2486.12098	0.91159
2484.19226	0.91201
2482.26354	0.91247
2480.33482	0.91296
2478.40610	0.91343
2476.47738	0.91383
2474.54866	0.91416
2472.61994	0.91442
2470.69122	0.91466
2468.76250	0.91487
2466.83378	0.91508
2464.90506	0.91530
2462.97634	0.91558
2461.04762	0.91589
2459.11889	0.91619
2457.19017	0.91647
2455.26145	0.91671
2453.33273	0.91690
2451.40401	0.91709
2449.47529	0.91732
2447.54657	0.91765
2445.61785	0.91804
2443.68913	0.91842
2441.76041	0.91877
2439.83169	0.91907
2437.90297	0.91931
2435.97425	0.91950
2434.04553	0.91968
2432.11681	0.91986
2430.18808	0.92003
2428.25936	0.92019
2426.33064	0.92037
2424.40192	0.92055
2422.47320	0.92070
2420.54448	0.92078
2418.61576	0.92078
2416.68704	0.92074
2414.75832	0.92066
2412.82960	0.92057
2410.90088	0.92051
2408.97216	0.92045
2407.04344	0.92035
2405.11472	0.92020
2403.18599	0.92003
2401.25727	0.91985
2399.32855	0.91968
2397.39983	0.91958
2395.47111	0.91955
2393.54239	0.91956
2391.61367	0.91957
2389.68495	0.91958
2387.75623	0.91964
2385.82751	0.91976
2383.89879	0.91982
2381.97007	0.91965
2380.04135	0.91922
2378.11263	0.91862
2376.18390	0.91796
2374.25518	0.91731
2372.32646	0.91672
2370.39774	0.91615
2368.46902	0.91544
2366.54030	0.91450
2364.61158	0.91357
2362.68286	0.91297
2360.75414	0.91276
2358.82542	0.91283
2356.89670	0.91303
2354.96798	0.91323
2353.03926	0.91348
2351.11054	0.91389
2349.18181	0.91452
2347.25309	0.91525
2345.32437	0.91589
2343.39565	0.91641
2341.46693	0.91698
2339.53821	0.91771
2337.60949	0.91853
2335.68077	0.91936
2333.75205	0.92010
2331.82333	0.92065
2329.89461	0.92096
2327.96589	0.92124
2326.03717	0.92179
2324.10845	0.92262
2322.17973	0.92346
2320.25100	0.92415
2318.32228	0.92469
2316.39356	0.92512
2314.46484	0.92556
2312.53612	0.92611
2310.60740	0.92672
2308.67868	0.92734
2306.74996	0.92795
2304.82124	0.92861
2302.89252	0.92934
2300.96380	0.93008
2299.03508	0.93075
2297.10636	0.93134
2295.17764	0.93190
2293.24891	0.93242
2291.32019	0.93291
2289.39147	0.93338
2287.46275	0.93380
2285.53403	0.93415
2283.60531	0.93446
2281.67659	0.93474
2279.74787	0.93500
2277.81915	0.93522
2275.89043	0.93543
2273.96171	0.93564
2272.03299	0.93589
2270.10427	0.93621
2268.17555	0.93660
2266.24682	0.93698
2264.31810	0.93729
2262.38938	0.93750
2260.46066	0.93767
2258.53194	0.93792
2256.60322	0.93837
2254.67450	0.93885
2252.74578	0.93898
2250.81706	0.93855
2248.88834	0.93687
2246.95962	0.93138
2245.03090	0.91914
2243.10218	0.89984
2241.17346	0.87590
2239.24473	0.85038
2237.31601	0.82589
2235.38729	0.80432
2233.45857	0.78688
2231.52985	0.77423
2229.60113	0.76666
2227.67241	0.76422
2225.74369	0.76698
2223.81497	0.77489
2221.88625	0.78774
2219.95753	0.80507
2218.02881	0.82602
2216.10009	0.84924
2214.17137	0.87307
2212.24265	0.89558
2210.31392	0.91412
2208.38520	0.92587
2206.45648	0.93060
2204.52776	0.93104
2202.59904	0.93011
2200.67032	0.92923
2198.74160	0.92882
2196.81288	0.92890
2194.88416	0.92928
2192.95544	0.92971
2191.02672	0.93009
2189.09800	0.93039
2187.16928	0.93065
2185.24056	0.93087
2183.31183	0.93102
2181.38311	0.93114
2179.45439	0.93128
2177.52567	0.93145
2175.59695	0.93163
2173.66823	0.93183
2171.73951	0.93208
2169.81079	0.93241
2167.88207	0.93282
2165.95335	0.93326
2164.02463	0.93370
2162.09591	0.93413
2160.16719	0.93454
2158.23847	0.93493
2156.30974	0.93523
2154.38102	0.93543
2152.45230	0.93553
2150.52358	0.93561
2148.59486	0.93572
2146.66614	0.93583
2144.73742	0.93592
2142.80870	0.93602
2140.87998	0.93612
2138.95126	0.93622
2137.02254	0.93628
2135.09382	0.93634
2133.16510	0.93638
2131.23638	0.93642
2129.30765	0.93643
2127.37893	0.93643
2125.45021	0.93641
2123.52149	0.93639
2121.59277	0.93636
2119.66405	0.93631
2117.73533	0.93625
2115.80661	0.93617
2113.87789	0.93608
2111.94917	0.93602
2110.02045	0.93601
2108.09173	0.93602
2106.16301	0.93602
2104.23429	0.93602
2102.30557	0.93603
2100.37684	0.93605
2098.44812	0.93607
2096.51940	0.93606
2094.59068	0.93601
2092.66196	0.93593
2090.73324	0.93585
2088.80452	0.93578
2086.87580	0.93571
2084.94708	0.93561
2083.01836	0.93547
2081.08964	0.93528
2079.16092	0.93507
2077.23220	0.93483
2075.30348	0.93460
2073.37475	0.93443
2071.44603	0.93432
2069.51731	0.93424
2067.58859	0.93419
2065.65987	0.93417
2063.73115	0.93421
2061.80243	0.93431
2059.87371	0.93444
2057.94499	0.93458
2056.01627	0.93475
2054.08755	0.93497
2052.15883	0.93523
2050.23011	0.93552
2048.30139	0.93580
2046.37266	0.93607
2044.44394	0.93633
2042.51522	0.93657
2040.58650	0.93680
2038.65778	0.93703
2036.72906	0.93725
2034.80034	0.93746
2032.87162	0.93768
2030.94290	0.93790
2029.01418	0.93809
2027.08546	0.93827
2025.15674	0.93842
2023.22802	0.93853
2021.29930	0.93861
2019.37057	0.93867
2017.44185	0.93872
2015.51313	0.93875
2013.58441	0.93875
2011.65569	0.93873
2009.72697	0.93868
2007.79825	0.93861
2005.86953	0.93854
2003.94081	0.93848
2002.01209	0.93842
2000.08337	0.93837
1998.15465	0.93832
1996.22593	0.93827
1994.29721	0.93823
1992.36849	0.93817
1990.43976	0.93809
1988.51104	0.93801
1986.58232	0.93794
1984.65360	0.93786
1982.72488	0.93776
1980.79616	0.93763
1978.86744	0.93746
1976.93872	0.93725
1975.01000	0.93701
1973.08128	0.93671
1971.15256	0.93637
1969.22384	0.93603
1967.29512	0.93572
1965.36640	0.93544
1963.43767	0.93519
1961.50895	0.93493
1959.58023	0.93460
1957.65151	0.93420
1955.72279	0.93377
1953.79407	0.93333
1951.86535	0.93288
1949.93663	0.93238
1948.00791	0.93172
1946.07919	0.93084
1944.15047	0.92973
1942.22175	0.92840
1940.29303	0.92690
1938.36431	0.92536
1936.43558	0.92386
1934.50686	0.92243
1932.57814	0.92119
1930.64942	0.92022
1928.72070	0.91956
1926.79198	0.91921
1924.86326	0.91918
1922.93454	0.91947
1921.00582	0.92005
1919.07710	0.92093
1917.14838	0.92211
1915.21966	0.92353
1913.29094	0.92508
1911.36222	0.92663
1909.43349	0.92809
1907.50477	0.92938
1905.57605	0.93050
1903.64733	0.93148
1901.71861	0.93237
1899.78989	0.93324
1897.86117	0.93403
1895.93245	0.93472
1894.00373	0.93534
1892.07501	0.93587
1890.14629	0.93638
1888.21757	0.93687
1886.28885	0.93726
1884.36013	0.93752
1882.43141	0.93769
1880.50268	0.93782
1878.57396	0.93793
1876.64524	0.93804
1874.71652	0.93812
1872.78780	0.93819
1870.85908	0.93825
1868.93036	0.93829
1867.00164	0.93835
1865.07292	0.93851
1863.14420	0.93870
1861.21548	0.93880
1859.28676	0.93884
1857.35804	0.93888
1855.42932	0.93894
1853.50059	0.93903
1851.57187	0.93921
1849.64315	0.93943
1847.71443	0.93957
1845.78571	0.93968
1843.85699	0.93982
1841.92827	0.93995
1839.99955	0.94006
1838.07083	0.94018
1836.14211	0.94031
1834.21339	0.94041
1832.28467	0.94050
1830.35595	0.94059
1828.42723	0.94067
1826.49850	0.94070
1824.56978	0.94059
1822.64106	0.94031
1820.71234	0.93995
1818.78362	0.93941
1816.85490	0.93859
1814.92618	0.93754
1812.99746	0.93640
1811.06874	0.93517
1809.14002	0.93381
1807.21130	0.93247
1805.28258	0.93128
1803.35386	0.93024
1801.42514	0.92944
1799.49641	0.92891
1797.56769	0.92862
1795.63897	0.92861
1793.71025	0.92901
1791.78153	0.92980
1789.85281	0.93079
1787.92409	0.93192
1785.99537	0.93314
1784.06665	0.93438
1782.13793	0.93560
1780.20921	0.93665
1778.28049	0.93746
1776.35177	0.93812
1774.42305	0.93862
1772.49433	0.93898
1770.56560	0.93925
1768.63688	0.93944
1766.70816	0.93948
1764.77944	0.93935
1762.85072	0.93910
1760.92200	0.93879
1758.99328	0.93838
1757.06456	0.93790
1755.13584	0.93754
1753.20712	0.93723
1751.27840	0.93671
1749.34968	0.93605
1747.42096	0.93541
1745.49224	0.93485
1743.56351	0.93438
1741.63479	0.93389
1739.70607	0.93342
1737.77735	0.93309
1735.84863	0.93274
1733.91991	0.93226
1731.99119	0.93160
1730.06247	0.93071
1728.13375	0.92966
1726.20503	0.92854
1724.27631	0.92723
1722.34759	0.92567
1720.41887	0.92394
1718.49015	0.92189
1716.56142	0.91941
1714.63270	0.91621
1712.70398	0.91171
1710.77526	0.90567
1708.84654	0.89779
1706.91782	0.88773
1704.98910	0.87550
1703.06038	0.86119
1701.13166	0.84500
1699.20294	0.82738
1697.27422	0.80888
1695.34550	0.79026
1693.41678	0.77214
1691.48806	0.75477
1689.55933	0.73808
1687.63061	0.72112
1685.70189	0.70208
1683.77317	0.67941
1681.84445	0.65224
1679.91573	0.62039
1677.98701	0.58491
1676.05829	0.54740
1674.12957	0.50925
1672.20085	0.47186
1670.27213	0.43713
1668.34341	0.40709
1666.41469	0.38330
1664.48597	0.36679
1662.55725	0.35876
1660.62852	0.36031
1658.69980	0.37192
1656.77108	0.39332
1654.84236	0.42337
1652.91364	0.46017
1650.98492	0.50113
1649.05620	0.54294
1647.12748	0.58217
1645.19876	0.61602
1643.27004	0.64212
1641.34132	0.65855
1639.41260	0.66420
1637.48388	0.65905
1635.55516	0.64429
1633.62643	0.62255
1631.69771	0.59727
1629.76899	0.57102
1627.84027	0.54519
1625.91155	0.52072
1623.98283	0.49800
1622.05411	0.47698
1620.12539	0.45820
1618.19667	0.44333
1616.26795	0.43391
1614.33923	0.43020
1612.41051	0.43099
1610.48179	0.43442
1608.55307	0.43889
1606.62434	0.44359
1604.69562	0.44846
1602.76690	0.45380
1600.83818	0.46032
1598.90946	0.46915
1596.98074	0.48154
1595.05202	0.49810
1593.12330	0.51797
1591.19458	0.53927
1589.26586	0.55990
1587.33714	0.57761
1585.40842	0.59068
1583.47970	0.59876
1581.55098	0.60301
1579.62225	0.60481
1577.69353	0.60451
1575.76481	0.60175
1573.83609	0.59658
1571.90737	0.59002
1569.97865	0.58412
1568.04993	0.58116
1566.12121	0.58267
1564.19249	0.58903
1562.26377	0.59972
1560.33505	0.61380
1558.40633	0.63010
1556.47761	0.64733
1554.54889	0.66436
1552.62017	0.68036
1550.69144	0.69461
1548.76272	0.70674
1546.83400	0.71686
1544.90528	0.72539
1542.97656	0.73293
1541.04784	0.74000
1539.11912	0.74693
1537.19040	0.75422
1535.26168	0.76204
1533.33296	0.77013
1531.40424	0.77824
1529.47552	0.78623
1527.54680	0.79403
1525.61808	0.80139
1523.68935	0.80797
1521.76063	0.81379
1519.83191	0.81910
1517.90319	0.82430
1515.97447	0.82972
1514.04575	0.83530
1512.11703	0.84093
1510.18831	0.84580
1508.25959	0.84698
1506.33087	0.84078
1504.40215	0.82562
1502.47343	0.80273
1500.54471	0.77495
1498.61599	0.74535
1496.68726	0.71621
1494.75854	0.68906
1492.82982	0.66503
1490.90110	0.64521
1488.97238	0.63070
1487.04366	0.62241
1485.11494	0.62098
1483.18622	0.62674
1481.25750	0.63943
1479.32878	0.65836
1477.40006	0.68220
1475.47134	0.70877
1473.54262	0.73539
1471.61390	0.75877
1469.68517	0.77550
1467.75645	0.78444
1465.82773	0.78753
1463.89901	0.78783
1461.97029	0.78757
1460.04157	0.78764
1458.11285	0.78828
1456.18413	0.78948
1454.25541	0.79125
1452.32669	0.79384
1450.39797	0.79749
1448.46925	0.80198
1446.54053	0.80662
1444.61181	0.81068
1442.68309	0.81350
1440.75436	0.81451
1438.82564	0.81303
1436.89692	0.80845
1434.96820	0.80118
1433.03948	0.79244
1431.11076	0.78353
1429.18204	0.77566
1427.25332	0.76975
1425.32460	0.76607
1423.39588	0.76386
1421.46716	0.76193
1419.53844	0.75952
1417.60972	0.75662
1415.68100	0.75376
1413.75227	0.75162
1411.82355	0.75059
1409.89483	0.75071
1407.96611	0.75197
1406.03739	0.75413
1404.10867	0.75675
1402.17995	0.75939
1400.25123	0.76176
1398.32251	0.76397
1396.39379	0.76677
1394.46507	0.77101
1392.53635	0.77717
1390.60763	0.78529
1388.67891	0.79493
1386.75018	0.80504
1384.82146	0.81391
1382.89274	0.81949
1380.96402	0.81944
1379.03530	0.81164
1377.10658	0.79509
1375.17786	0.77017
1373.24914	0.73845
1371.32042	0.70233
1369.39170	0.66427
1367.46298	0.62635
1365.53426	0.59030
1363.60554	0.55760
1361.67682	0.52960
1359.74809	0.50753
1357.81937	0.49241
1355.89065	0.48491
1353.96193	0.48536
1352.03321	0.49392
1350.10449	0.51045
1348.17577	0.53400
1346.24705	0.56237
1344.31833	0.59227
1342.38961	0.62039
1340.46089	0.64497
1338.53217	0.66620
1336.60345	0.68524
1334.67473	0.70319
1332.74601	0.72035
1330.81728	0.73601
1328.88856	0.74917
1326.95984	0.75924
1325.03112	0.76592
1323.10240	0.76845
1321.17368	0.76532
1319.24496	0.75478
1317.31624	0.73582
1315.38752	0.70888
1313.45880	0.67562
1311.53008	0.63812
1309.60136	0.59838
1307.67264	0.55840
1305.74392	0.52025
1303.81519	0.48586
1301.88647	0.45677
1299.95775	0.43391
1298.02903	0.41743
1296.10031	0.40692
1294.17159	0.40193
1292.24287	0.40249
1290.31415	0.40912
1288.38543	0.42219
1286.45671	0.44105
1284.52799	0.46389
1282.59927	0.48866
1280.67055	0.51384
1278.74183	0.53860
1276.81310	0.56239
1274.88438	0.58457
1272.95566	0.60470
1271.02694	0.62300
1269.09822	0.64018
1267.16950	0.65679
1265.24078	0.67290
1263.31206	0.68821
1261.38334	0.70222
1259.45462	0.71448
1257.52590	0.72505
1255.59718	0.73450
1253.66846	0.74344
1251.73974	0.75217
1249.81101	0.76070
1247.88229	0.76908
1245.95357	0.77741
1244.02485	0.78559
1242.09613	0.79319
1240.16741	0.79951
1238.23869	0.80403
1236.30997	0.80679
1234.38125	0.80832
1232.45253	0.80918
1230.52381	0.80974
1228.59509	0.81024
1226.66637	0.81069
1224.73765	0.81085
1222.80893	0.81041
1220.88020	0.80923
1218.95148	0.80709
1217.02276	0.80351
1215.09404	0.79781
1213.16532	0.78943
1211.23660	0.77820
1209.30788	0.76465
1207.37916	0.74972
1205.45044	0.73447
1203.52172	0.71993
1201.59300	0.70707
1199.66428	0.69685
1197.73556	0.69005
1195.80684	0.68708
1193.87811	0.68758
1191.94939	0.68997
1190.02067	0.69162
1188.09195	0.69015
1186.16323	0.68500
1184.23451	0.67740
1182.30579	0.66927
1180.37707	0.66213
1178.44835	0.65658
1176.51963	0.65196
1174.59091	0.64684
1172.66219	0.64029
1170.73347	0.63281
1168.80475	0.62599
1166.87602	0.62147
1164.94730	0.62014
1163.01858	0.62213
1161.08986	0.62729
1159.16114	0.63549
1157.23242	0.64625
1155.30370	0.65802
1153.37498	0.66829
1151.44626	0.67519
1149.51754	0.67896
1147.58882	0.68169
1145.66010	0.68568
1143.73138	0.69230
1141.80266	0.70180
1139.87393	0.71333
1137.94521	0.72534
1136.01649	0.73655
1134.08777	0.74676
1132.15905	0.75639
1130.23033	0.76537
1128.30161	0.77271
1126.37289	0.77714
1124.44417	0.77830
1122.51545	0.77693
1120.58673	0.77392
1118.65801	0.76969
1116.72929	0.76446
1114.80057	0.75853
1112.87184	0.75240
1110.94312	0.74679
1109.01440	0.74249
1107.08568	0.74010
1105.15696	0.74001
1103.22824	0.74242
1101.29952	0.74732
1099.37080	0.75440
1097.44208	0.76306
1095.51336	0.77242
1093.58464	0.78139
1091.65592	0.78897
1089.72720	0.79472
1087.79848	0.79895
1085.86976	0.80238
1083.94103	0.80544
1082.01231	0.80809
1080.08359	0.81053
1078.15487	0.81341
1076.22615	0.81720
1074.29743	0.82190
1072.36871	0.82731
1070.43999	0.83317
1068.51127	0.83922
1066.58255	0.84531
1064.65383	0.85128
1062.72511	0.85682
1060.79639	0.86153
1058.86767	0.86511
1056.93894	0.86744
1055.01022	0.86871
1053.08150	0.86944
1051.15278	0.87033
1049.22406	0.87162
1047.29534	0.87278
1045.36662	0.87315
1043.43790	0.87230
1041.50918	0.86974
1039.58046	0.86514
1037.65174	0.85915
1035.72302	0.85293
1033.79430	0.84734
1031.86558	0.84272
1029.93685	0.83906
1028.00813	0.83631
1026.07941	0.83452
1024.15069	0.83382
1022.22197	0.83435
1020.29325	0.83630
1018.36453	0.83984
1016.43581	0.84506
1014.50709	0.85191
1012.57837	0.86000
1010.64965	0.86840
1008.72093	0.87603
1006.79221	0.88230
1004.86349	0.88694
1002.93476	0.88979
1001.00604	0.89138
999.07732	0.89291
997.14860	0.89501
995.21988	0.89728
993.29116	0.89883
991.36244	0.89890
989.43372	0.89725
987.50500	0.89401
985.57628	0.88935
983.64756	0.88347
981.71884	0.87666
979.79012	0.86920
977.86140	0.86141
975.93268	0.85369
974.00395	0.84651
972.07523	0.84038
970.14651	0.83576
968.21779	0.83296
966.28907	0.83212
964.36035	0.83335
962.43163	0.83664
960.50291	0.84183
958.57419	0.84843
956.64547	0.85578
954.71675	0.86324
952.78803	0.87038
950.85931	0.87702
948.93059	0.88308
947.00186	0.88849
945.07314	0.89333
943.14442	0.89778
941.21570	0.90188
939.28698	0.90554
937.35826	0.90821
935.42954	0.90902
933.50082	0.90743
931.57210	0.90363
929.64338	0.89838
927.71466	0.89263
925.78594	0.88722
923.85722	0.88267
921.92850	0.87885
919.99977	0.87510
918.07105	0.87101
916.14233	0.86708
914.21361	0.86430
912.28489	0.86298
910.35617	0.86205
908.42745	0.85973
906.49873	0.85526
904.57001	0.84935
902.64129	0.84309
900.71257	0.83701
898.78385	0.83110
896.85513	0.82541
894.92641	0.82060
892.99768	0.81779
891.06896	0.81781
889.14024	0.82096
887.21152	0.82702
885.28280	0.83539
883.35408	0.84520
881.42536	0.85577
879.49664	0.86714
877.56792	0.87959
875.63920	0.89266
873.71048	0.90460
871.78176	0.91264
869.85304	0.91415
867.92432	0.90825
865.99560	0.89618
864.06687	0.88014
862.13815	0.86239
860.20943	0.84469
858.28071	0.82822
856.35199	0.81378
854.42327	0.80147
852.49455	0.79053
850.56583	0.78005
848.63711	0.76975
846.70839	0.76030
844.77967	0.75298
842.85095	0.74863
840.92223	0.74727
838.99351	0.74860
837.06478	0.75246
835.13606	0.75826
833.20734	0.76451
831.27862	0.76956
829.34990	0.77324
827.42118	0.77695
825.49246	0.78245
823.56374	0.79072
821.63502	0.80174
819.70630	0.81481
817.77758	0.82881
815.84886	0.84213
813.92014	0.85327
811.99142	0.86170
810.06269	0.86807
808.13397	0.87346
806.20525	0.87818
804.27653	0.88138
802.34781	0.88228
800.41909	0.88129
798.49037	0.87945
796.56165	0.87746
794.63293	0.87550
792.70421	0.87352
790.77549	0.87154
788.84677	0.86963
786.91805	0.86799
784.98933	0.86687
783.06060	0.86640
781.13188	0.86650
779.20316	0.86704
777.27444	0.86804
775.34572	0.86965
773.41700	0.87193
771.48828	0.87468
769.55956	0.87722
767.63084	0.87858
765.70212	0.87794
763.77340	0.87484
761.84468	0.86936
759.91596	0.86236
757.98724	0.85515
756.05852	0.84874
754.12979	0.84351
752.20107	0.83937
750.27235	0.83602
748.34363	0.83318
746.41491	0.83070
744.48619	0.82859
742.55747	0.82695
740.62875	0.82569
738.70003	0.82499
736.77131	0.82501
734.84259	0.82574
732.91387	0.82707
730.98515	0.82869
729.05643	0.82956
727.12770	0.82783
725.19898	0.82198
723.27026	0.81209
721.34154	0.79972
719.41282	0.78641
717.48410	0.77324
715.55538	0.76115
713.62666	0.75093
711.69794	0.74312
709.76922	0.73803
707.84050	0.73589
705.91178	0.73689
703.98306	0.74116
702.05434	0.74870
700.12561	0.75954
698.19689	0.77305
696.26817	0.78795
694.33945	0.80293
692.41073	0.81669
690.48201	0.82756
688.55329	0.83425
686.62457	0.83718
684.69585	0.83753
682.76713	0.83595
680.83841	0.83314
678.90969	0.83021
676.98097	0.82811
675.05225	0.82732
673.12352	0.82791
671.19480	0.82984
669.26608	0.83298
667.33736	0.83712
665.40864	0.84187
663.47992	0.84680
661.55120	0.85145
659.62248	0.85520
657.69376	0.85762
655.76504	0.85897
653.83632	0.85991
651.90760	0.86089
649.97888	0.86225
648.05016	0.86426
646.12144	0.86653
644.19271	0.86855
642.26399	0.87042
640.33527	0.87218
638.40655	0.87368
636.47783	0.87485
634.54911	0.87590
632.62039	0.87702
630.69167	0.87820
628.76295	0.87937
626.83423	0.88065
624.90551	0.88239
622.97679	0.88449
621.04807	0.88584
619.11935	0.88493
617.19062	0.88113
615.26190	0.87519
613.33318	0.86833
611.40446	0.86143
609.47574	0.85500
607.54702	0.84948
605.61830	0.84523
603.68958	0.84227
601.76086	0.84055
599.83214	0.84019
597.90342	0.84146
595.97470	0.84461
594.04598	0.84975
592.11726	0.85672
590.18853	0.86532
588.25981	0.87521
586.33109	0.88555
584.40237	0.89493
582.47365	0.90199
580.54493	0.90633
578.61621	0.90872
576.68749	0.91008
574.75877	0.91063
572.83005	0.91019
570.90133	0.90828
568.97261	0.90379
567.04389	0.89587
565.11517	0.88528
563.18644	0.87397
561.25772	0.86357
559.32900	0.85477
557.40028	0.84764
555.47156	0.84207
553.54284	0.83805
551.61412	0.83590
549.68540	0.83601
547.75668	0.83866
545.82796	0.84387
543.89924	0.85152
541.97052	0.86127
540.04180	0.87246
538.11308	0.88416
536.18436	0.89548
534.25563	0.90559
532.32691	0.91348
530.39819	0.91841
528.46947	0.92104
526.54075	0.92312
524.61203	0.92578
522.68331	0.92885
520.75459	0.93165
518.82587	0.93381
516.89715	0.93523
514.96843	0.93603
513.03971	0.93667
511.11099	0.93770
509.18227	0.93923
507.25354	0.94087
505.32482	0.94240
503.39610	0.94397
501.46738	0.94573
499.53866	0.94738
497.60994	0.94847
495.68122	0.94885
493.75250	0.94878
491.82378	0.94851
489.89506	0.94800
487.96634	0.94721
486.03762	0.94636
484.10890	0.94564
482.18018	0.94508
480.25145	0.94473
478.32273	0.94445
476.39401	0.94402
474.46529	0.94364
472.53657	0.94365
470.60785	0.94407
468.67913	0.94477
466.75041	0.94580
464.82169	0.94757
462.89297	0.95023
460.96425	0.95289
459.03553	0.95433
457.10681	0.95387
455.17809	0.95129
453.24936	0.94698
451.32064	0.94197
449.39192	0.93742
447.46320	0.93397
445.53448	0.93167
443.60576	0.93058
441.67704	0.93092
439.74832	0.93255
437.81960	0.93483
435.89088	0.93756
433.96216	0.94118
432.03344	0.94596
430.10472	0.95186
428.17600	0.95877
426.24728	0.96667
424.31855	0.97502
422.38983	0.98219
420.46111	0.98685
418.53239	0.98899
416.60367	0.98899
414.67495	0.98899
412.74623	0.98899
410.81751	0.98899
408.88879	0.98899
406.96007	0.98899
405.03135	0.98899
403.10263	0.98899
401.17391	0.98899
399.24519	0.98899
