3996.30929	1.00113
3994.38057	1.00113
3992.45185	1.00113
3990.52313	1.00113
3988.59441	1.00113
3986.66569	1.00113
3984.73697	1.00113
3982.80825	1.00113
3980.87953	1.00113
3978.95081	1.00113
3977.02209	1.00113
3975.09337	1.00082
3973.16465	1.00056
3971.23593	1.00035
3969.30720	1.00020
3967.37848	1.00009
3965.44976	1.00002
3963.52104	0.99999
3961.59232	0.99999
3959.66360	0.99999
3957.73488	0.99997
3955.80616	0.99992
3953.87744	0.99988
3951.94872	0.99985
3950.02000	0.99984
3948.09128	0.99984
3946.16256	0.99987
3944.23384	0.99990
3942.30511	0.99994
3940.37639	0.99998
3938.44767	1.00003
3936.51895	1.00010
3934.59023	1.00020
3932.66151	1.00031
3930.73279	1.00043
3928.80407	1.00055
3926.87535	1.00066
3924.94663	1.00075
3923.01791	1.00080
3921.08919	1.00080
3919.16047	1.00075
3917.23175	1.00066
3915.30302	1.00053
3913.37430	1.00038
3911.44558	1.00021
3909.51686	1.00003
3907.58814	0.99985
3905.65942	0.99968
3903.73070	0.99951
3901.80198	0.99936
3899.87326	0.99925
3897.94454	0.99920
3896.01582	0.99919
3894.08710	0.99921
3892.15838	0.99924
3890.22966	0.99926
3888.30094	0.99928
3886.37221	0.99929
3884.44349	0.99931
3882.51477	0.99933
3880.58605	0.99936
3878.65733	0.99940
3876.72861	0.99944
3874.79989	0.99949
3872.87117	0.99954
3870.94245	0.99960
3869.01373	0.99965
3867.08501	0.99972
3865.15629	0.99981
3863.22757	0.99992
3861.29885	1.00003
3859.37012	1.00014
3857.44140	1.00024
3855.51268	1.00026
3853.58396	1.00021
3851.65524	1.00012
3849.72652	1.00000
3847.79780	0.99987
3845.86908	0.99971
3843.94036	0.99953
3842.01164	0.99931
3840.08292	0.99905
3838.15420	0.99875
3836.22548	0.99842
3834.29676	0.99809
3832.36803	0.99776
3830.43931	0.99748
3828.51059	0.99726
3826.58187	0.99710
3824.65315	0.99701
3822.72443	0.99697
3820.79571	0.99699
3818.86699	0.99707
3816.93827	0.99720
3815.00955	0.99739
3813.08083	0.99766
3811.15211	0.99799
3809.22339	0.99835
3807.29467	0.99871
3805.36594	0.99904
3803.43722	0.99933
3801.50850	0.99956
3799.57978	0.99976
3797.65106	0.99992
3795.72234	1.00005
3793.79362	1.00017
3791.86490	1.00025
3789.93618	1.00030
3788.00746	1.00031
3786.07874	1.00028
3784.15002	1.00022
3782.22130	1.00014
3780.29258	1.00004
3778.36386	0.99993
3776.43513	0.99984
3774.50641	0.99975
3772.57769	0.99966
3770.64897	0.99957
3768.72025	0.99949
3766.79153	0.99941
3764.86281	0.99932
3762.93409	0.99925
3761.00537	0.99919
3759.07665	0.99917
3757.14793	0.99917
3755.21921	0.99920
3753.29049	0.99924
3751.36177	0.99927
3749.43304	0.99931
3747.50432	0.99935
3745.57560	0.99938
3743.64688	0.99941
3741.71816	0.99945
3739.78944	0.99949
3737.86072	0.99952
3735.93200	0.99956
3734.00328	0.99959
3732.07456	0.99962
3730.14584	0.99962
3728.21712	0.99957
3726.28840	0.99948
3724.35968	0.99938
3722.43095	0.99928
3720.50223	0.99921
3718.57351	0.99917
3716.64479	0.99916
3714.71607	0.99915
3712.78735	0.99916
3710.85863	0.99918
3708.92991	0.99921
3707.00119	0.99922
3705.07247	0.99922
3703.14375	0.99920
3701.21503	0.99915
3699.28631	0.99907
3697.35759	0.99895
3695.42886	0.99876
3693.50014	0.99849
3691.57142	0.99812
3689.64270	0.99767
3687.71398	0.99714
3685.78526	0.99658
3683.85654	0.99600
3681.92782	0.99541
3679.99910	0.99480
3678.07038	0.99416
3676.14166	0.99347
3674.21294	0.99273
3672.28422	0.99193
3670.35550	0.99107
3668.42678	0.99013
3666.49805	0.98913
3664.56933	0.98806
3662.64061	0.98692
3660.71189	0.98570
3658.78317	0.98440
3656.85445	0.98302
3654.92573	0.98156
3652.99701	0.98002
3651.06829	0.97841
3649.13957	0.97676
3647.21085	0.97507
3645.28213	0.97334
3643.35341	0.97155
3641.42469	0.96969
3639.49596	0.96776
3637.56724	0.96573
3635.63852	0.96361
3633.70980	0.96139
3631.78108	0.95906
3629.85236	0.95663
3627.92364	0.95409
3625.99492	0.95147
3624.06620	0.94876
3622.13748	0.94595
3620.20876	0.94305
3618.28004	0.94008
3616.35132	0.93706
3614.42260	0.93397
3612.49387	0.93084
3610.56515	0.92766
3608.63643	0.92444
3606.70771	0.92118
3604.77899	0.91790
3602.85027	0.91458
3600.92155	0.91124
3598.99283	0.90787
3597.06411	0.90447
3595.13539	0.90104
3593.20667	0.89758
3591.27795	0.89409
3589.34923	0.89055
3587.42051	0.88696
3585.49178	0.88330
3583.56306	0.87956
3581.63434	0.87573
3579.70562	0.87180
3577.77690	0.86775
3575.84818	0.86355
3573.91946	0.85917
3571.99074	0.85460
3570.06202	0.84985
3568.13330	0.84491
3566.20458	0.83976
3564.27586	0.83441
3562.34714	0.82886
3560.41842	0.82313
3558.48970	0.81723
3556.56097	0.81120
3554.63225	0.80505
3552.70353	0.79883
3550.77481	0.79256
3548.84609	0.78630
3546.91737	0.78011
3544.98865	0.77403
3543.05993	0.76812
3541.13121	0.76241
3539.20249	0.75694
3537.27377	0.75176
3535.34505	0.74690
3533.41633	0.74239
3531.48761	0.73825
3529.55888	0.73449
3527.63016	0.73112
3525.70144	0.72812
3523.77272	0.72549
3521.84400	0.72322
3519.91528	0.72129
3517.98656	0.71965
3516.05784	0.71828
3514.12912	0.71714
3512.20040	0.71620
3510.27168	0.71541
3508.34296	0.71476
3506.41424	0.71420
3504.48552	0.71371
3502.55679	0.71328
3500.62807	0.71287
3498.69935	0.71245
3496.77063	0.71201
3494.84191	0.71155
3492.91319	0.71105
3490.98447	0.71052
3489.05575	0.70996
3487.12703	0.70938
3485.19831	0.70879
3483.26959	0.70817
3481.34087	0.70754
3479.41215	0.70689
3477.48343	0.70625
3475.55470	0.70559
3473.62598	0.70495
3471.69726	0.70432
3469.76854	0.70370
3467.83982	0.70308
3465.91110	0.70245
3463.98238	0.70180
3462.05366	0.70111
3460.12494	0.70034
3458.19622	0.69949
3456.26750	0.69854
3454.33878	0.69750
3452.41006	0.69633
3450.48134	0.69504
3448.55262	0.69362
3446.62389	0.69207
3444.69517	0.69038
3442.76645	0.68856
3440.83773	0.68662
3438.90901	0.68458
3436.98029	0.68245
3435.05157	0.68025
3433.12285	0.67798
3431.19413	0.67565
3429.26541	0.67326
3427.33669	0.67083
3425.40797	0.66835
3423.47925	0.66583
3421.55053	0.66329
3419.62180	0.66075
3417.69308	0.65823
3415.76436	0.65573
3413.83564	0.65326
3411.90692	0.65085
3409.97820	0.64852
3408.04948	0.64628
3406.12076	0.64417
3404.19204	0.64219
3402.26332	0.64039
3400.33460	0.63876
3398.40588	0.63732
3396.47716	0.63608
3394.54844	0.63504
3392.61971	0.63422
3390.69099	0.63361
3388.76227	0.63322
3386.83355	0.63308
3384.90483	0.63318
3382.97611	0.63355
3381.04739	0.63419
3379.11867	0.63508
3377.18995	0.63623
3375.26123	0.63764
3373.33251	0.63929
3371.40379	0.64118
3369.47507	0.64331
3367.54635	0.64566
3365.61762	0.64820
3363.68890	0.65091
3361.76018	0.65373
3359.83146	0.65665
3357.90274	0.65963
3355.97402	0.66264
3354.04530	0.66565
3352.11658	0.66865
3350.18786	0.67161
3348.25914	0.67451
3346.33042	0.67734
3344.40170	0.68008
3342.47298	0.68273
3340.54426	0.68526
3338.61553	0.68768
3336.68681	0.68998
3334.75809	0.69214
3332.82937	0.69417
3330.90065	0.69605
3328.97193	0.69779
3327.04321	0.69937
3325.11449	0.70077
3323.18577	0.70200
3321.25705	0.70304
3319.32833	0.70392
3317.39961	0.70462
3315.47089	0.70516
3313.54217	0.70556
3311.61345	0.70583
3309.68472	0.70600
3307.75600	0.70607
3305.82728	0.70608
3303.89856	0.70604
3301.96984	0.70597
3300.04112	0.70589
3298.11240	0.70578
3296.18368	0.70564
3294.25496	0.70547
3292.32624	0.70525
3290.39752	0.70498
3288.46880	0.70461
3286.54008	0.70413
3284.61136	0.70350
3282.68263	0.70273
3280.75391	0.70179
3278.82519	0.70068
3276.89647	0.69939
3274.96775	0.69796
3273.03903	0.69638
3271.11031	0.69468
3269.18159	0.69286
3267.25287	0.69095
3265.32415	0.68898
3263.39543	0.68696
3261.46671	0.68490
3259.53799	0.68280
3257.60927	0.68067
3255.68054	0.67850
3253.75182	0.67630
3251.82310	0.67404
3249.89438	0.67171
3247.96566	0.66929
3246.03694	0.66678
3244.10822	0.66419
3242.17950	0.66150
3240.25078	0.65874
3238.32206	0.65591
3236.39334	0.65304
3234.46462	0.65015
3232.53590	0.64724
3230.60718	0.64434
3228.67845	0.64149
3226.74973	0.63870
3224.82101	0.63601
3222.89229	0.63344
3220.96357	0.63100
3219.03485	0.62872
3217.10613	0.62661
3215.17741	0.62468
3213.24869	0.62295
3211.31997	0.62142
3209.39125	0.62009
3207.46253	0.61900
3205.53381	0.61816
3203.60509	0.61757
3201.67637	0.61724
3199.74764	0.61715
3197.81892	0.61728
3195.89020	0.61762
3193.96148	0.61812
3192.03276	0.61877
3190.10404	0.61952
3188.17532	0.62033
3186.24660	0.62115
3184.31788	0.62194
3182.38916	0.62265
3180.46044	0.62326
3178.53172	0.62376
3176.60300	0.62415
3174.67428	0.62446
3172.74555	0.62471
3170.81683	0.62497
3168.88811	0.62530
3166.95939	0.62578
3165.03067	0.62647
3163.10195	0.62742
3161.17323	0.62870
3159.24451	0.63035
3157.31579	0.63242
3155.38707	0.63492
3153.45835	0.63786
3151.52963	0.64121
3149.60091	0.64494
3147.67219	0.64899
3145.74346	0.65329
3143.81474	0.65780
3141.88602	0.66243
3139.95730	0.66712
3138.02858	0.67181
3136.09986	0.67643
3134.17114	0.68094
3132.24242	0.68531
3130.31370	0.68955
3128.38498	0.69367
3126.45626	0.69765
3124.52754	0.70147
3122.59882	0.70506
3120.67010	0.70839
3118.74137	0.71140
3116.81265	0.71404
3114.88393	0.71628
3112.95521	0.71808
3111.02649	0.71942
3109.09777	0.72026
3107.16905	0.72061
3105.24033	0.72046
3103.31161	0.71980
3101.38289	0.71863
3099.45417	0.71693
3097.52545	0.71473
3095.59673	0.71207
3093.66801	0.70901
3091.73929	0.70562
3089.81056	0.70187
3087.88184	0.69774
3085.95312	0.69314
3084.02440	0.68806
3082.09568	0.68249
3080.16696	0.67647
3078.23824	0.67008
3076.30952	0.66345
3074.38080	0.65673
3072.45208	0.65005
3070.52336	0.64357
3068.59464	0.63745
3066.66592	0.63178
3064.73720	0.62664
3062.80847	0.62204
3060.87975	0.61797
3058.95103	0.61438
3057.02231	0.61124
3055.09359	0.60845
3053.16487	0.60589
3051.23615	0.60342
3049.30743	0.60090
3047.37871	0.59826
3045.44999	0.59546
3043.52127	0.59256
3041.59255	0.58962
3039.66383	0.58678
3037.73511	0.58417
3035.80638	0.58194
3033.87766	0.58023
3031.94894	0.57915
3030.02022	0.57876
3028.09150	0.57908
3026.16278	0.58008
3024.23406	0.58166
3022.30534	0.58374
3020.37662	0.58619
3018.44790	0.58889
3016.51918	0.59173
3014.59046	0.59458
3012.66174	0.59734
3010.73302	0.59996
3008.80429	0.60239
3006.87557	0.60463
3004.94685	0.60672
3003.01813	0.60869
3001.08941	0.61060
2999.16069	0.61252
2997.23197	0.61449
2995.30325	0.61659
2993.37453	0.61884
2991.44581	0.62130
2989.51709	0.62397
2987.58837	0.62685
2985.65965	0.62993
2983.73093	0.63321
2981.80221	0.63668
2979.87348	0.64032
2977.94476	0.64411
2976.01604	0.64803
2974.08732	0.65208
2972.15860	0.65624
2970.22988	0.66051
2968.30116	0.66485
2966.37244	0.66926
2964.44372	0.67370
2962.51500	0.67813
2960.58628	0.68252
2958.65756	0.68686
2956.72884	0.69111
2954.80012	0.69524
2952.87139	0.69923
2950.94267	0.70305
2949.01395	0.70667
2947.08523	0.71007
2945.15651	0.71324
2943.22779	0.71616
2941.29907	0.71884
2939.37035	0.72128
2937.44163	0.72351
2935.51291	0.72556
2933.58419	0.72746
2931.65547	0.72924
2929.72675	0.73093
2927.79803	0.73255
2925.86930	0.73413
2923.94058	0.73570
2922.01186	0.73728
2920.08314	0.73889
2918.15442	0.74054
2916.22570	0.74224
2914.29698	0.74397
2912.36826	0.74575
2910.43954	0.74756
2908.51082	0.74939
2906.58210	0.75122
2904.65338	0.75303
2902.72466	0.75480
2900.79594	0.75650
2898.86721	0.75813
2896.93849	0.75968
2895.00977	0.76112
2893.08105	0.76246
2891.15233	0.76366
2889.22361	0.76472
2887.29489	0.76563
2885.36617	0.76637
2883.43745	0.76693
2881.50873	0.76731
2879.58001	0.76749
2877.65129	0.76748
2875.72257	0.76727
2873.79385	0.76687
2871.86513	0.76628
2869.93640	0.76553
2868.00768	0.76462
2866.07896	0.76358
2864.15024	0.76243
2862.22152	0.76121
2860.29280	0.75997
2858.36408	0.75875
2856.43536	0.75760
2854.50664	0.75659
2852.57792	0.75574
2850.64920	0.75511
2848.72048	0.75473
2846.79176	0.75464
2844.86304	0.75485
2842.93431	0.75539
2841.00559	0.75627
2839.07687	0.75748
2837.14815	0.75902
2835.21943	0.76086
2833.29071	0.76298
2831.36199	0.76533
2829.43327	0.76788
2827.50455	0.77058
2825.57583	0.77339
2823.64711	0.77627
2821.71839	0.77918
2819.78967	0.78210
2817.86095	0.78499
2815.93222	0.78784
2814.00350	0.79063
2812.07478	0.79334
2810.14606	0.79596
2808.21734	0.79848
2806.28862	0.80090
2804.35990	0.80324
2802.43118	0.80548
2800.50246	0.80764
2798.57374	0.80971
2796.64502	0.81169
2794.71630	0.81357
2792.78758	0.81535
2790.85886	0.81700
2788.93013	0.81852
2787.00141	0.81990
2785.07269	0.82115
2783.14397	0.82228
2781.21525	0.82329
2779.28653	0.82421
2777.35781	0.82506
2775.42909	0.82583
2773.50037	0.82655
2771.57165	0.82723
2769.64293	0.82790
2767.71421	0.82859
2765.78549	0.82932
2763.85677	0.83010
2761.92805	0.83096
2759.99932	0.83191
2758.07060	0.83295
2756.14188	0.83406
2754.21316	0.83523
2752.28444	0.83646
2750.35572	0.83772
2748.42700	0.83901
2746.49828	0.84030
2744.56956	0.84159
2742.64084	0.84286
2740.71212	0.84408
2738.78340	0.84524
2736.85468	0.84630
2734.92596	0.84725
2732.99723	0.84808
2731.06851	0.84878
2729.13979	0.84934
2727.21107	0.84980
2725.28235	0.85015
2723.35363	0.85041
2721.42491	0.85059
2719.49619	0.85072
2717.56747	0.85082
2715.63875	0.85092
2713.71003	0.85104
2711.78131	0.85119
2709.85259	0.85140
2707.92387	0.85167
2705.99514	0.85203
2704.06642	0.85247
2702.13770	0.85300
2700.20898	0.85360
2698.28026	0.85427
2696.35154	0.85497
2694.42282	0.85570
2692.49410	0.85644
2690.56538	0.85718
2688.63666	0.85790
2686.70794	0.85858
2684.77922	0.85922
2682.85050	0.85982
2680.92178	0.86037
2678.99305	0.86088
2677.06433	0.86134
2675.13561	0.86176
2673.20689	0.86214
2671.27817	0.86249
2669.34945	0.86282
2667.42073	0.86313
2665.49201	0.86343
2663.56329	0.86374
2661.63457	0.86405
2659.70585	0.86437
2657.77713	0.86469
2655.84841	0.86501
2653.91969	0.86532
2651.99097	0.86562
2650.06224	0.86592
2648.13352	0.86622
2646.20480	0.86653
2644.27608	0.86685
2642.34736	0.86720
2640.41864	0.86757
2638.48992	0.86798
2636.56120	0.86844
2634.63248	0.86895
2632.70376	0.86952
2630.77504	0.87014
2628.84632	0.87081
2626.91760	0.87150
2624.98888	0.87219
2623.06015	0.87285
2621.13143	0.87346
2619.20271	0.87400
2617.27399	0.87445
2615.34527	0.87481
2613.41655	0.87507
2611.48783	0.87525
2609.55911	0.87537
2607.63039	0.87544
2605.70167	0.87550
2603.77295	0.87557
2601.84423	0.87569
2599.91551	0.87589
2597.98679	0.87621
2596.05806	0.87666
2594.12934	0.87723
2592.20062	0.87793
2590.27190	0.87873
2588.34318	0.87961
2586.41446	0.88054
2584.48574	0.88150
2582.55702	0.88245
2580.62830	0.88339
2578.69958	0.88428
2576.77086	0.88512
2574.84214	0.88588
2572.91342	0.88655
2570.98470	0.88714
2569.05597	0.88764
2567.12725	0.88805
2565.19853	0.88840
2563.26981	0.88868
2561.34109	0.88892
2559.41237	0.88912
2557.48365	0.88931
2555.55493	0.88948
2553.62621	0.88967
2551.69749	0.88988
2549.76877	0.89013
2547.84005	0.89044
2545.91133	0.89082
2543.98261	0.89129
2542.05389	0.89185
2540.12516	0.89250
2538.19644	0.89324
2536.26772	0.89405
2534.33900	0.89491
2532.41028	0.89583
2530.48156	0.89677
2528.55284	0.89772
2526.62412	0.89866
2524.69540	0.89957
2522.76668	0.90043
2520.83796	0.90123
2518.90924	0.90195
2516.98052	0.90261
2515.05180	0.90319
2513.12307	0.90372
2511.19435	0.90420
2509.26563	0.90465
2507.33691	0.90510
2505.40819	0.90556
2503.47947	0.90605
2501.55075	0.90659
2499.62203	0.90717
2497.69331	0.90780
2495.76459	0.90849
2493.83587	0.90922
2491.90715	0.90999
2489.97843	0.91079
2488.04971	0.91159
2486.12098	0.91239
2484.19226	0.91314
2482.26354	0.91385
2480.33482	0.91449
2478.40610	0.91507
2476.47738	0.91557
2474.54866	0.91600
2472.61994	0.91637
2470.69122	0.91670
2468.76250	0.91700
2466.83378	0.91730
2464.90506	0.91759
2462.97634	0.91790
2461.04762	0.91823
2459.11889	0.91858
2457.19017	0.91898
2455.26145	0.91942
2453.33273	0.91992
2451.40401	0.92046
2449.47529	0.92102
2447.54657	0.92160
2445.61785	0.92218
2443.68913	0.92274
2441.76041	0.92327
2439.83169	0.92378
2437.90297	0.92423
2435.97425	0.92463
2434.04553	0.92499
2432.11681	0.92530
2430.18808	0.92557
2428.25936	0.92581
2426.33064	0.92600
2424.40192	0.92617
2422.47320	0.92631
2420.54448	0.92644
2418.61576	0.92658
2416.68704	0.92671
2414.75832	0.92685
2412.82960	0.92697
2410.90088	0.92710
2408.97216	0.92722
2407.04344	0.92733
2405.11472	0.92744
2403.18599	0.92750
2401.25727	0.92752
2399.32855	0.92749
2397.39983	0.92743
2395.47111	0.92737
2393.54239	0.92732
2391.61367	0.92727
2389.68495	0.92723
2387.75623	0.92721
2385.82751	0.92727
2383.89879	0.92743
2381.97007	0.92765
2380.04135	0.92791
2378.11263	0.92815
2376.18390	0.92836
2374.25518	0.92854
2372.32646	0.92867
2370.39774	0.92873
2368.46902	0.92871
2366.54030	0.92856
2364.61158	0.92828
2362.68286	0.92791
2360.75414	0.92750
2358.82542	0.92711
2356.89670	0.92675
2354.96798	0.92645
2353.03926	0.92622
2351.11054	0.92613
2349.18181	0.92626
2347.25309	0.92665
2345.32437	0.92723
2343.39565	0.92790
2341.46693	0.92863
2339.53821	0.92940
2337.60949	0.93019
2335.68077	0.93101
2333.75205	0.93182
2331.82333	0.93261
2329.89461	0.93337
2327.96589	0.93407
2326.03717	0.93474
2324.10845	0.93543
2322.17973	0.93613
2320.25100	0.93685
2318.32228	0.93758
2316.39356	0.93833
2314.46484	0.93913
2312.53612	0.93998
2310.60740	0.94089
2308.67868	0.94180
2306.74996	0.94266
2304.82124	0.94347
2302.89252	0.94422
2300.96380	0.94492
2299.03508	0.94557
2297.10636	0.94616
2295.17764	0.94670
2293.24891	0.94720
2291.32019	0.94765
2289.39147	0.94808
2287.46275	0.94850
2285.53403	0.94893
2283.60531	0.94937
2281.67659	0.94983
2279.74787	0.95033
2277.81915	0.95085
2275.89043	0.95141
2273.96171	0.95198
2272.03299	0.95254
2270.10427	0.95305
2268.17555	0.95345
2266.24682	0.95377
2264.31810	0.95430
2262.38938	0.95543
2260.46066	0.95737
2258.53194	0.95990
2256.60322	0.96238
2254.67450	0.96401
2252.74578	0.96397
2250.81706	0.96160
2248.88834	0.95644
2246.95962	0.94824
2245.03090	0.93693
2243.10218	0.92268
2241.17346	0.90583
2239.24473	0.88691
2237.31601	0.86658
2235.38729	0.84570
2233.45857	0.82523
2231.52985	0.80628
2229.60113	0.79019
2227.67241	0.77852
2225.74369	0.77278
2223.81497	0.77376
2221.88625	0.78116
2219.95753	0.79378
2218.02881	0.81008
2216.10009	0.82863
2214.17137	0.84821
2212.24265	0.86782
2210.31392	0.88657
2208.38520	0.90376
2206.45648	0.91879
2204.52776	0.93124
2202.59904	0.94086
2200.67032	0.94760
2198.74160	0.95159
2196.81288	0.95319
2194.88416	0.95293
2192.95544	0.95153
2191.02672	0.94979
2189.09800	0.94844
2187.16928	0.94789
2185.24056	0.94808
2183.31183	0.94866
2181.38311	0.94926
2179.45439	0.94973
2177.52567	0.95008
2175.59695	0.95038
2173.66823	0.95069
2171.73951	0.95104
2169.81079	0.95145
2167.88207	0.95191
2165.95335	0.95241
2164.02463	0.95293
2162.09591	0.95348
2160.16719	0.95403
2158.23847	0.95457
2156.30974	0.95509
2154.38102	0.95558
2152.45230	0.95603
2150.52358	0.95646
2148.59486	0.95684
2146.66614	0.95719
2144.73742	0.95750
2142.80870	0.95777
2140.87998	0.95800
2138.95126	0.95820
2137.02254	0.95837
2135.09382	0.95852
2133.16510	0.95865
2131.23638	0.95874
2129.30765	0.95880
2127.37893	0.95882
2125.45021	0.95883
2123.52149	0.95881
2121.59277	0.95878
2119.66405	0.95876
2117.73533	0.95875
2115.80661	0.95878
2113.87789	0.95886
2111.94917	0.95899
2110.02045	0.95916
2108.09173	0.95937
2106.16301	0.95962
2104.23429	0.95990
2102.30557	0.96021
2100.37684	0.96054
2098.44812	0.96088
2096.51940	0.96120
2094.59068	0.96151
2092.66196	0.96180
2090.73324	0.96205
2088.80452	0.96227
2086.87580	0.96246
2084.94708	0.96260
2083.01836	0.96271
2081.08964	0.96279
2079.16092	0.96286
2077.23220	0.96291
2075.30348	0.96295
2073.37475	0.96299
2071.44603	0.96303
2069.51731	0.96309
2067.58859	0.96316
2065.65987	0.96328
2063.73115	0.96343
2061.80243	0.96364
2059.87371	0.96391
2057.94499	0.96423
2056.01627	0.96461
2054.08755	0.96504
2052.15883	0.96552
2050.23011	0.96604
2048.30139	0.96659
2046.37266	0.96714
2044.44394	0.96770
2042.51522	0.96824
2040.58650	0.96877
2038.65778	0.96927
2036.72906	0.96974
2034.80034	0.97017
2032.87162	0.97056
2030.94290	0.97092
2029.01418	0.97126
2027.08546	0.97158
2025.15674	0.97189
2023.22802	0.97221
2021.29930	0.97254
2019.37057	0.97289
2017.44185	0.97325
2015.51313	0.97361
2013.58441	0.97396
2011.65569	0.97428
2009.72697	0.97455
2007.79825	0.97475
2005.86953	0.97488
2003.94081	0.97494
2002.01209	0.97494
2000.08337	0.97487
1998.15465	0.97475
1996.22593	0.97459
1994.29721	0.97438
1992.36849	0.97413
1990.43976	0.97381
1988.51104	0.97343
1986.58232	0.97296
1984.65360	0.97241
1982.72488	0.97177
1980.79616	0.97104
1978.86744	0.97024
1976.93872	0.96938
1975.01000	0.96847
1973.08128	0.96753
1971.15256	0.96659
1969.22384	0.96567
1967.29512	0.96482
1965.36640	0.96404
1963.43767	0.96335
1961.50895	0.96275
1959.58023	0.96222
1957.65151	0.96172
1955.72279	0.96120
1953.79407	0.96061
1951.86535	0.95988
1949.93663	0.95896
1948.00791	0.95783
1946.07919	0.95649
1944.15047	0.95500
1942.22175	0.95342
1940.29303	0.95185
1938.36431	0.95038
1936.43558	0.94911
1934.50686	0.94811
1932.57814	0.94747
1930.64942	0.94723
1928.72070	0.94744
1926.79198	0.94807
1924.86326	0.94910
1922.93454	0.95050
1921.00582	0.95219
1919.07710	0.95410
1917.14838	0.95613
1915.21966	0.95819
1913.29094	0.96020
1911.36222	0.96208
1909.43349	0.96382
1907.50477	0.96541
1905.57605	0.96688
1903.64733	0.96826
1901.71861	0.96958
1899.78989	0.97088
1897.86117	0.97220
1895.93245	0.97356
1894.00373	0.97499
1892.07501	0.97646
1890.14629	0.97797
1888.21757	0.97950
1886.28885	0.98101
1884.36013	0.98250
1882.43141	0.98393
1880.50268	0.98529
1878.57396	0.98655
1876.64524	0.98768
1874.71652	0.98870
1872.78780	0.98958
1870.85908	0.99034
1868.93036	0.99100
1867.00164	0.99157
1865.07292	0.99206
1863.14420	0.99249
1861.21548	0.99285
1859.28676	0.99317
1857.35804	0.99345
1855.42932	0.99369
1853.50059	0.99390
1851.57187	0.99407
1849.64315	0.99421
1847.71443	0.99432
1845.78571	0.99442
1843.85699	0.99450
1841.92827	0.99455
1839.99955	0.99454
1838.07083	0.99444
1836.14211	0.99419
1834.21339	0.99375
1832.28467	0.99305
1830.35595	0.99205
1828.42723	0.99075
1826.49850	0.98911
1824.56978	0.98717
1822.64106	0.98497
1820.71234	0.98258
1818.78362	0.98010
1816.85490	0.97764
1814.92618	0.97532
1812.99746	0.97328
1811.06874	0.97164
1809.14002	0.97051
1807.21130	0.96999
1805.28258	0.97011
1803.35386	0.97085
1801.42514	0.97217
1799.49641	0.97397
1797.56769	0.97614
1795.63897	0.97855
1793.71025	0.98106
1791.78153	0.98355
1789.85281	0.98594
1787.92409	0.98813
1785.99537	0.99008
1784.06665	0.99176
1782.13793	0.99315
1780.20921	0.99428
1778.28049	0.99515
1776.35177	0.99584
1774.42305	0.99639
1772.49433	0.99685
1770.56560	0.99730
1768.63688	0.99774
1766.70816	0.99820
1764.77944	0.99867
1762.85072	0.99913
1760.92200	0.99958
1758.99328	1.00000
1757.06456	1.00036
1755.13584	1.00063
1753.20712	1.00082
1751.27840	1.00093
1749.34968	1.00100
1747.42096	1.00102
1745.49224	1.00100
1743.56351	1.00093
1741.63479	1.00082
1739.70607	1.00067
1737.77735	1.00049
1735.84863	1.00028
1733.91991	1.00005
1731.99119	0.99982
1730.06247	0.99960
1728.13375	0.99935
1726.20503	0.99906
1724.27631	0.99870
1722.34759	0.99818
1720.41887	0.99743
1718.49015	0.99633
1716.56142	0.99475
1714.63270	0.99254
1712.70398	0.98952
1710.77526	0.98550
1708.84654	0.98030
1706.91782	0.97372
1704.98910	0.96561
1703.06038	0.95581
1701.13166	0.94422
1699.20294	0.93082
1697.27422	0.91563
1695.34550	0.89875
1693.41678	0.88032
1691.48806	0.86051
1689.55933	0.83960
1687.63061	0.81791
1685.70189	0.79572
1683.77317	0.77336
1681.84445	0.75116
1679.91573	0.72933
1677.98701	0.70802
1676.05829	0.68723
1674.12957	0.66686
1672.20085	0.64669
1670.27213	0.62630
1668.34341	0.60520
1666.41469	0.58287
1664.48597	0.55882
1662.55725	0.53277
1660.62852	0.50470
1658.69980	0.47485
1656.77108	0.44363
1654.84236	0.41157
1652.91364	0.37929
1650.98492	0.34754
1649.05620	0.31709
1647.12748	0.28880
1645.19876	0.26365
1643.27004	0.24263
1641.34132	0.22651
1639.41260	0.21575
1637.48388	0.21043
1635.55516	0.21013
1633.62643	0.21406
1631.69771	0.22109
1629.76899	0.23004
1627.84027	0.23979
1625.91155	0.24956
1623.98283	0.25897
1622.05411	0.26812
1620.12539	0.27737
1618.19667	0.28718
1616.26795	0.29787
1614.33923	0.30963
1612.41051	0.32254
1610.48179	0.33678
1608.55307	0.35264
1606.62434	0.37049
1604.69562	0.39051
1602.76690	0.41250
1600.83818	0.43579
1598.90946	0.45929
1596.98074	0.48163
1595.05202	0.50128
1593.12330	0.51683
1591.19458	0.52714
1589.26586	0.53155
1587.33714	0.53002
1585.40842	0.52308
1583.47970	0.51180
1581.55098	0.49748
1579.62225	0.48128
1577.69353	0.46412
1575.76481	0.44675
1573.83609	0.43003
1571.90737	0.41497
1569.97865	0.40261
1568.04993	0.39389
1566.12121	0.38945
1564.19249	0.38954
1562.26377	0.39408
1560.33505	0.40266
1558.40633	0.41465
1556.47761	0.42926
1554.54889	0.44566
1552.62017	0.46315
1550.69144	0.48117
1548.76272	0.49938
1546.83400	0.51756
1544.90528	0.53560
1542.97656	0.55331
1541.04784	0.57040
1539.11912	0.58655
1537.19040	0.60154
1535.26168	0.61534
1533.33296	0.62820
1531.40424	0.64059
1529.47552	0.65305
1527.54680	0.66611
1525.61808	0.68016
1523.68935	0.69525
1521.76063	0.71094
1519.83191	0.72634
1517.90319	0.74028
1515.97447	0.75157
1514.04575	0.75905
1512.11703	0.76177
1510.18831	0.75901
1508.25959	0.75035
1506.33087	0.73573
1504.40215	0.71546
1502.47343	0.69021
1500.54471	0.66105
1498.61599	0.62947
1496.68726	0.59748
1494.75854	0.56753
1492.82982	0.54217
1490.90110	0.52371
1488.97238	0.51394
1487.04366	0.51379
1485.11494	0.52316
1483.18622	0.54087
1481.25750	0.56503
1479.32878	0.59344
1477.40006	0.62388
1475.47134	0.65424
1473.54262	0.68263
1471.61390	0.70750
1469.68517	0.72767
1467.75645	0.74246
1465.82773	0.75162
1463.89901	0.75542
1461.97029	0.75457
1460.04157	0.75015
1458.11285	0.74359
1456.18413	0.73642
1454.25541	0.73001
1452.32669	0.72544
1450.39797	0.72342
1448.46925	0.72425
1446.54053	0.72767
1444.61181	0.73307
1442.68309	0.73978
1440.75436	0.74734
1438.82564	0.75543
1436.89692	0.76376
1434.96820	0.77202
1433.03948	0.77987
1431.11076	0.78703
1429.18204	0.79333
1427.25332	0.79861
1425.32460	0.80273
1423.39588	0.80559
1421.46716	0.80707
1419.53844	0.80709
1417.60972	0.80565
1415.68100	0.80277
1413.75227	0.79854
1411.82355	0.79316
1409.89483	0.78693
1407.96611	0.78019
1406.03739	0.77351
1404.10867	0.76766
1402.17995	0.76349
1400.25123	0.76160
1398.32251	0.76223
1396.39379	0.76537
1394.46507	0.77076
1392.53635	0.77797
1390.60763	0.78627
1388.67891	0.79466
1386.75018	0.80189
1384.82146	0.80658
1382.89274	0.80730
1380.96402	0.80275
1379.03530	0.79185
1377.10658	0.77385
1375.17786	0.74845
1373.24914	0.71584
1371.32042	0.67676
1369.39170	0.63251
1367.46298	0.58492
1365.53426	0.53616
1363.60554	0.48852
1361.67682	0.44428
1359.74809	0.40563
1357.81937	0.37448
1355.89065	0.35231
1353.96193	0.34003
1352.03321	0.33795
1350.10449	0.34579
1348.17577	0.36278
1346.24705	0.38758
1344.31833	0.41847
1342.38961	0.45346
1340.46089	0.49046
1338.53217	0.52747
1336.60345	0.56263
1334.67473	0.59428
1332.74601	0.62105
1330.81728	0.64193
1328.88856	0.65633
1326.95984	0.66403
1325.03112	0.66514
1323.10240	0.66007
1321.17368	0.64947
1319.24496	0.63417
1317.31624	0.61509
1315.38752	0.59314
1313.45880	0.56928
1311.53008	0.54438
1309.60136	0.51911
1307.67264	0.49397
1305.74392	0.46941
1303.81519	0.44594
1301.88647	0.42418
1299.95775	0.40487
1298.02903	0.38865
1296.10031	0.37604
1294.17159	0.36742
1292.24287	0.36309
1290.31415	0.36323
1288.38543	0.36783
1286.45671	0.37675
1284.52799	0.38970
1282.59927	0.40631
1280.67055	0.42603
1278.74183	0.44806
1276.81310	0.47144
1274.88438	0.49518
1272.95566	0.51834
1271.02694	0.54014
1269.09822	0.56002
1267.16950	0.57769
1265.24078	0.59316
1263.31206	0.60662
1261.38334	0.61840
1259.45462	0.62890
1257.52590	0.63853
1255.59718	0.64771
1253.66846	0.65679
1251.73974	0.66600
1249.81101	0.67545
1247.88229	0.68514
1245.95357	0.69502
1244.02485	0.70494
1242.09613	0.71467
1240.16741	0.72392
1238.23869	0.73239
1236.30997	0.73990
1234.38125	0.74646
1232.45253	0.75219
1230.52381	0.75720
1228.59509	0.76144
1226.66637	0.76472
1224.73765	0.76678
1222.80893	0.76732
1220.88020	0.76601
1218.95148	0.76252
1217.02276	0.75651
1215.09404	0.74770
1213.16532	0.73598
1211.23660	0.72144
1209.30788	0.70449
1207.37916	0.68582
1205.45044	0.66622
1203.52172	0.64645
1201.59300	0.62717
1199.66428	0.60908
1197.73556	0.59292
1195.80684	0.57942
1193.87811	0.56913
1191.94939	0.56233
1190.02067	0.55904
1188.09195	0.55912
1186.16323	0.56232
1184.23451	0.56818
1182.30579	0.57603
1180.37707	0.58501
1178.44835	0.59418
1176.51963	0.60277
1174.59091	0.61027
1172.66219	0.61654
1170.73347	0.62166
1168.80475	0.62574
1166.87602	0.62880
1164.94730	0.63082
1163.01858	0.63184
1161.08986	0.63207
1159.16114	0.63189
1157.23242	0.63174
1155.30370	0.63217
1153.37498	0.63381
1151.44626	0.63739
1149.51754	0.64358
1147.58882	0.65282
1145.66010	0.66508
1143.73138	0.67996
1141.80266	0.69677
1139.87393	0.71485
1137.94521	0.73355
1136.01649	0.75214
1134.08777	0.76980
1132.15905	0.78561
1130.23033	0.79866
1128.30161	0.80818
1126.37289	0.81362
1124.44417	0.81474
1122.51545	0.81160
1120.58673	0.80457
1118.65801	0.79425
1116.72929	0.78149
1114.80057	0.76729
1112.87184	0.75273
1110.94312	0.73875
1109.01440	0.72606
1107.08568	0.71513
1105.15696	0.70625
1103.22824	0.69972
1101.29952	0.69569
1099.37080	0.69395
1097.44208	0.69399
1095.51336	0.69525
1093.58464	0.69735
1091.65592	0.70006
1089.72720	0.70332
1087.79848	0.70720
1085.86976	0.71185
1083.94103	0.71743
1082.01231	0.72409
1080.08359	0.73191
1078.15487	0.74090
1076.22615	0.75097
1074.29743	0.76197
1072.36871	0.77370
1070.43999	0.78590
1068.51127	0.79831
1066.58255	0.81073
1064.65383	0.82298
1062.72511	0.83475
1060.79639	0.84562
1058.86767	0.85522
1056.93894	0.86334
1055.01022	0.86997
1053.08150	0.87521
1051.15278	0.87919
1049.22406	0.88215
1047.29534	0.88430
1045.36662	0.88588
1043.43790	0.88701
1041.50918	0.88777
1039.58046	0.88829
1037.65174	0.88869
1035.72302	0.88899
1033.79430	0.88917
1031.86558	0.88922
1029.93685	0.88921
1028.00813	0.88927
1026.07941	0.88949
1024.15069	0.88987
1022.22197	0.89025
1020.29325	0.89050
1018.36453	0.89052
1016.43581	0.89033
1014.50709	0.89000
1012.57837	0.88970
1010.64965	0.88969
1008.72093	0.89024
1006.79221	0.89152
1004.86349	0.89355
1002.93476	0.89635
1001.00604	0.89980
999.07732	0.90352
997.14860	0.90684
995.21988	0.90911
993.29116	0.90989
991.36244	0.90884
989.43372	0.90573
987.50500	0.90036
985.57628	0.89262
983.64756	0.88253
981.71884	0.87038
979.79012	0.85672
977.86140	0.84230
975.93268	0.82810
974.00395	0.81520
972.07523	0.80461
970.14651	0.79716
968.21779	0.79339
966.28907	0.79356
964.36035	0.79766
962.43163	0.80535
960.50291	0.81595
958.57419	0.82871
956.64547	0.84295
954.71675	0.85804
952.78803	0.87331
950.85931	0.88806
948.93059	0.90157
947.00186	0.91325
945.07314	0.92267
943.14442	0.92971
941.21570	0.93458
939.28698	0.93763
937.35826	0.93912
935.42954	0.93912
933.50082	0.93756
931.57210	0.93438
929.64338	0.92969
927.71466	0.92376
925.78594	0.91687
923.85722	0.90922
921.92850	0.90087
919.99977	0.89185
918.07105	0.88226
916.14233	0.87219
914.21361	0.86170
912.28489	0.85083
910.35617	0.83978
908.42745	0.82897
906.49873	0.81904
904.57001	0.81078
902.64129	0.80489
900.71257	0.80162
898.78385	0.80069
896.85513	0.80170
894.92641	0.80451
892.99768	0.80941
891.06896	0.81698
889.14024	0.82770
887.21152	0.84145
885.28280	0.85741
883.35408	0.87442
881.42536	0.89150
879.49664	0.90795
877.56792	0.92304
875.63920	0.93566
873.71048	0.94439
871.78176	0.94796
869.85304	0.94550
867.92432	0.93650
865.99560	0.92073
864.06687	0.89809
862.13815	0.86873
860.20943	0.83333
858.28071	0.79321
856.35199	0.75038
854.42327	0.70729
852.49455	0.66633
850.56583	0.62938
848.63711	0.59779
846.70839	0.57263
844.77967	0.55514
842.85095	0.54670
840.92223	0.54808
838.99351	0.55874
837.06478	0.57692
835.13606	0.60059
833.20734	0.62800
831.27862	0.65766
829.34990	0.68803
827.42118	0.71755
825.49246	0.74485
823.56374	0.76899
821.63502	0.78947
819.70630	0.80605
817.77758	0.81877
815.84886	0.82784
813.92014	0.83357
811.99142	0.83637
810.06269	0.83686
808.13397	0.83587
806.20525	0.83437
804.27653	0.83312
802.34781	0.83245
800.41909	0.83223
798.49037	0.83236
796.56165	0.83296
794.63293	0.83422
792.70421	0.83611
790.77549	0.83839
788.84677	0.84083
786.91805	0.84337
784.98933	0.84608
783.06060	0.84911
781.13188	0.85246
779.20316	0.85597
777.27444	0.85921
775.34572	0.86171
773.41700	0.86302
771.48828	0.86283
769.55956	0.86095
767.63084	0.85736
765.70212	0.85217
763.77340	0.84560
761.84468	0.83794
759.91596	0.82955
757.98724	0.82079
756.05852	0.81203
754.12979	0.80366
752.20107	0.79618
750.27235	0.79011
748.34363	0.78606
746.41491	0.78462
744.48619	0.78623
742.55747	0.79087
740.62875	0.79784
738.70003	0.80607
736.77131	0.81444
734.84259	0.82188
732.91387	0.82740
730.98515	0.83001
729.05643	0.82886
727.12770	0.82337
725.19898	0.81333
723.27026	0.79883
721.34154	0.78011
719.41282	0.75740
717.48410	0.73096
715.55538	0.70114
713.62666	0.66853
711.69794	0.63404
709.76922	0.59889
707.84050	0.56450
705.91178	0.53216
703.98306	0.50282
702.05434	0.47715
700.12561	0.45569
698.19689	0.43887
696.26817	0.42695
694.33945	0.42003
692.41073	0.41816
690.48201	0.42147
688.55329	0.43023
686.62457	0.44463
684.69585	0.46445
682.76713	0.48888
680.83841	0.51655
678.90969	0.54594
676.98097	0.57567
675.05225	0.60468
673.12352	0.63231
671.19480	0.65815
669.26608	0.68193
667.33736	0.70332
665.40864	0.72202
663.47992	0.73792
661.55120	0.75103
659.62248	0.76143
657.69376	0.76938
655.76504	0.77533
653.83632	0.77994
651.90760	0.78391
649.97888	0.78788
648.05016	0.79225
646.12144	0.79710
644.19271	0.80224
642.26399	0.80757
640.33527	0.81325
638.40655	0.81960
636.47783	0.82674
634.54911	0.83443
632.62039	0.84216
630.69167	0.84921
628.76295	0.85485
626.83423	0.85848
624.90551	0.85971
622.97679	0.85825
621.04807	0.85398
619.11935	0.84702
617.19062	0.83766
615.26190	0.82631
613.33318	0.81342
611.40446	0.79957
609.47574	0.78553
607.54702	0.77231
605.61830	0.76114
603.68958	0.75348
601.76086	0.75056
599.83214	0.75289
597.90342	0.76008
595.97470	0.77125
594.04598	0.78541
592.11726	0.80161
590.18853	0.81901
588.25981	0.83707
586.33109	0.85550
584.40237	0.87387
582.47365	0.89135
580.54493	0.90680
578.61621	0.91916
576.68749	0.92756
574.75877	0.93141
572.83005	0.93054
570.90133	0.92517
568.97261	0.91587
567.04389	0.90343
565.11517	0.88871
563.18644	0.87240
561.25772	0.85504
559.32900	0.83721
557.40028	0.81975
555.47156	0.80381
553.54284	0.79067
551.61412	0.78177
549.68540	0.77850
547.75668	0.78160
545.82796	0.79059
543.89924	0.80413
541.97052	0.82076
540.04180	0.83932
538.11308	0.85883
536.18436	0.87839
534.25563	0.89719
532.32691	0.91454
530.39819	0.92988
528.46947	0.94281
526.54075	0.95308
524.61203	0.96066
522.68331	0.96575
520.75459	0.96877
518.82587	0.97026
516.89715	0.97088
514.96843	0.97138
513.03971	0.97245
511.11099	0.97449
509.18227	0.97731
507.25354	0.98033
505.32482	0.98304
503.39610	0.98521
501.46738	0.98672
499.53866	0.98753
497.60994	0.98760
495.68122	0.98693
493.75250	0.98557
491.82378	0.98350
489.89506	0.98074
487.96634	0.97738
486.03762	0.97363
484.10890	0.96975
482.18018	0.96603
480.25145	0.96278
478.32273	0.96046
476.39401	0.95955
474.46529	0.96036
472.53657	0.96276
470.60785	0.96626
468.67913	0.97026
466.75041	0.97415
464.82169	0.97743
462.89297	0.97975
460.96425	0.98087
459.03553	0.98064
457.10681	0.97898
455.17809	0.97584
453.24936	0.97123
451.32064	0.96533
449.39192	0.95851
447.46320	0.95131
445.53448	0.94433
443.60576	0.93828
441.67704	0.93392
439.74832	0.93187
437.81960	0.93245
435.89088	0.93556
433.96216	0.94064
432.03344	0.94707
430.10472	0.95432
428.17600	0.96195
426.24728	0.96959
424.31855	0.97692
422.38983	0.98366
420.46111	0.98956
418.53239	0.99443
416.60367	0.99443
414.67495	0.99443
412.74623	0.99443
410.81751	0.99443
408.88879	0.99443
406.96007	0.99443
405.03135	0.99443
403.10263	0.99443
401.17391	0.99443
399.24519	0.99443
