3996.30929	0.99636
3994.38057	0.99636
3992.45185	0.99636
3990.52313	0.99636
3988.59441	0.99636
3986.66569	0.99636
3984.73697	0.99636
3982.80825	0.99636
3980.87953	0.99636
3978.95081	0.99636
3977.02209	0.99636
3975.09337	0.99615
3973.16465	0.99583
3971.23593	0.99539
3969.30720	0.99485
3967.37848	0.99420
3965.44976	0.99343
3963.52104	0.99254
3961.59232	0.99159
3959.66360	0.99061
3957.73488	0.98966
3955.80616	0.98878
3953.87744	0.98797
3951.94872	0.98725
3950.02000	0.98658
3948.09128	0.98597
3946.16256	0.98546
3944.23384	0.98510
3942.30511	0.98489
3940.37639	0.98480
3938.44767	0.98481
3936.51895	0.98489
3934.59023	0.98504
3932.66151	0.98525
3930.73279	0.98550
3928.80407	0.98573
3926.87535	0.98592
3924.94663	0.98606
3923.01791	0.98615
3921.08919	0.98620
3919.16047	0.98618
3917.23175	0.98606
3915.30302	0.98581
3913.37430	0.98541
3911.44558	0.98484
3909.51686	0.98412
3907.58814	0.98327
3905.65942	0.98231
3903.73070	0.98125
3901.80198	0.98013
3899.87326	0.97898
3897.94454	0.97785
3896.01582	0.97672
3894.08710	0.97561
3892.15838	0.97453
3890.22966	0.97350
3888.30094	0.97256
3886.37221	0.97174
3884.44349	0.97105
3882.51477	0.97049
3880.58605	0.97007
3878.65733	0.96977
3876.72861	0.96959
3874.79989	0.96952
3872.87117	0.96954
3870.94245	0.96965
3869.01373	0.96988
3867.08501	0.97018
3865.15629	0.97051
3863.22757	0.97084
3861.29885	0.97115
3859.37012	0.97143
3857.44140	0.97166
3855.51268	0.97183
3853.58396	0.97195
3851.65524	0.97204
3849.72652	0.97209
3847.79780	0.97206
3845.86908	0.97191
3843.94036	0.97162
3842.01164	0.97119
3840.08292	0.97064
3838.15420	0.96999
3836.22548	0.96926
3834.29676	0.96846
3832.36803	0.96762
3830.43931	0.96676
3828.51059	0.96585
3826.58187	0.96490
3824.65315	0.96397
3822.72443	0.96310
3820.79571	0.96234
3818.86699	0.96174
3816.93827	0.96130
3815.00955	0.96103
3813.08083	0.96091
3811.15211	0.96090
3809.22339	0.96094
3807.29467	0.96099
3805.36594	0.96102
3803.43722	0.96104
3801.50850	0.96101
3799.57978	0.96095
3797.65106	0.96086
3795.72234	0.96076
3793.79362	0.96067
3791.86490	0.96055
3789.93618	0.96038
3788.00746	0.96018
3786.07874	0.95998
3784.15002	0.95982
3782.22130	0.95972
3780.29258	0.95968
3778.36386	0.95964
3776.43513	0.95956
3774.50641	0.95941
3772.57769	0.95916
3770.64897	0.95879
3768.72025	0.95823
3766.79153	0.95746
3764.86281	0.95650
3762.93409	0.95541
3761.00537	0.95424
3759.07665	0.95308
3757.14793	0.95196
3755.21921	0.95087
3753.29049	0.94983
3751.36177	0.94886
3749.43304	0.94806
3747.50432	0.94747
3745.57560	0.94712
3743.64688	0.94699
3741.71816	0.94703
3739.78944	0.94719
3737.86072	0.94742
3735.93200	0.94772
3734.00328	0.94804
3732.07456	0.94830
3730.14584	0.94842
3728.21712	0.94837
3726.28840	0.94818
3724.35968	0.94788
3722.43095	0.94750
3720.50223	0.94704
3718.57351	0.94648
3716.64479	0.94583
3714.71607	0.94515
3712.78735	0.94448
3710.85863	0.94389
3708.92991	0.94337
3707.00119	0.94290
3705.07247	0.94246
3703.14375	0.94203
3701.21503	0.94160
3699.28631	0.94117
3697.35759	0.94074
3695.42886	0.94027
3693.50014	0.93973
3691.57142	0.93912
3689.64270	0.93848
3687.71398	0.93782
3685.78526	0.93714
3683.85654	0.93645
3681.92782	0.93573
3679.99910	0.93498
3678.07038	0.93421
3676.14166	0.93345
3674.21294	0.93272
3672.28422	0.93202
3670.35550	0.93131
3668.42678	0.93056
3666.49805	0.92977
3664.56933	0.92894
3662.64061	0.92806
3660.71189	0.92712
3658.78317	0.92611
3656.85445	0.92507
3654.92573	0.92402
3652.99701	0.92297
3651.06829	0.92193
3649.13957	0.92089
3647.21085	0.91983
3645.28213	0.91876
3643.35341	0.91763
3641.42469	0.91643
3639.49596	0.91516
3637.56724	0.91385
3635.63852	0.91250
3633.70980	0.91110
3631.78108	0.90960
3629.85236	0.90804
3627.92364	0.90646
3625.99492	0.90486
3624.06620	0.90325
3622.13748	0.90165
3620.20876	0.90006
3618.28004	0.89851
3616.35132	0.89699
3614.42260	0.89548
3612.49387	0.89397
3610.56515	0.89245
3608.63643	0.89091
3606.70771	0.88934
3604.77899	0.88771
3602.85027	0.88603
3600.92155	0.88428
3598.99283	0.88248
3597.06411	0.88063
3595.13539	0.87872
3593.20667	0.87678
3591.27795	0.87487
3589.34923	0.87299
3587.42051	0.87116
3585.49178	0.86934
3583.56306	0.86751
3581.63434	0.86563
3579.70562	0.86366
3577.77690	0.86160
3575.84818	0.85947
3573.91946	0.85732
3571.99074	0.85519
3570.06202	0.85310
3568.13330	0.85107
3566.20458	0.84909
3564.27586	0.84716
3562.34714	0.84531
3560.41842	0.84352
3558.48970	0.84179
3556.56097	0.84010
3554.63225	0.83847
3552.70353	0.83689
3550.77481	0.83533
3548.84609	0.83373
3546.91737	0.83206
3544.98865	0.83030
3543.05993	0.82842
3541.13121	0.82647
3539.20249	0.82449
3537.27377	0.82253
3535.34505	0.82064
3533.41633	0.81882
3531.48761	0.81704
3529.55888	0.81527
3527.63016	0.81351
3525.70144	0.81177
3523.77272	0.81002
3521.84400	0.80824
3519.91528	0.80640
3517.98656	0.80450
3516.05784	0.80257
3514.12912	0.80061
3512.20040	0.79858
3510.27168	0.79651
3508.34296	0.79441
3506.41424	0.79231
3504.48552	0.79026
3502.55679	0.78827
3500.62807	0.78634
3498.69935	0.78449
3496.77063	0.78269
3494.84191	0.78091
3492.91319	0.77912
3490.98447	0.77731
3489.05575	0.77550
3487.12703	0.77369
3485.19831	0.77186
3483.26959	0.76999
3481.34087	0.76809
3479.41215	0.76618
3477.48343	0.76428
3475.55470	0.76234
3473.62598	0.76037
3471.69726	0.75839
3469.76854	0.75641
3467.83982	0.75444
3465.91110	0.75250
3463.98238	0.75059
3462.05366	0.74873
3460.12494	0.74693
3458.19622	0.74518
3456.26750	0.74350
3454.33878	0.74189
3452.41006	0.74039
3450.48134	0.73900
3448.55262	0.73772
3446.62389	0.73651
3444.69517	0.73536
3442.76645	0.73425
3440.83773	0.73316
3438.90901	0.73206
3436.98029	0.73092
3435.05157	0.72975
3433.12285	0.72853
3431.19413	0.72727
3429.26541	0.72599
3427.33669	0.72470
3425.40797	0.72340
3423.47925	0.72210
3421.55053	0.72083
3419.62180	0.71960
3417.69308	0.71842
3415.76436	0.71730
3413.83564	0.71625
3411.90692	0.71527
3409.97820	0.71435
3408.04948	0.71348
3406.12076	0.71262
3404.19204	0.71178
3402.26332	0.71095
3400.33460	0.71014
3398.40588	0.70935
3396.47716	0.70856
3394.54844	0.70776
3392.61971	0.70694
3390.69099	0.70610
3388.76227	0.70523
3386.83355	0.70432
3384.90483	0.70341
3382.97611	0.70251
3381.04739	0.70164
3379.11867	0.70080
3377.18995	0.70000
3375.26123	0.69926
3373.33251	0.69859
3371.40379	0.69797
3369.47507	0.69743
3367.54635	0.69699
3365.61762	0.69670
3363.68890	0.69656
3361.76018	0.69655
3359.83146	0.69665
3357.90274	0.69686
3355.97402	0.69716
3354.04530	0.69755
3352.11658	0.69802
3350.18786	0.69858
3348.25914	0.69926
3346.33042	0.70006
3344.40170	0.70098
3342.47298	0.70200
3340.54426	0.70307
3338.61553	0.70418
3336.68681	0.70528
3334.75809	0.70636
3332.82937	0.70741
3330.90065	0.70845
3328.97193	0.70945
3327.04321	0.71040
3325.11449	0.71127
3323.18577	0.71206
3321.25705	0.71281
3319.32833	0.71354
3317.39961	0.71426
3315.47089	0.71501
3313.54217	0.71581
3311.61345	0.71669
3309.68472	0.71768
3307.75600	0.71876
3305.82728	0.71991
3303.89856	0.72111
3301.96984	0.72235
3300.04112	0.72358
3298.11240	0.72479
3296.18368	0.72593
3294.25496	0.72698
3292.32624	0.72791
3290.39752	0.72871
3288.46880	0.72938
3286.54008	0.72994
3284.61136	0.73042
3282.68263	0.73086
3280.75391	0.73126
3278.82519	0.73166
3276.89647	0.73207
3274.96775	0.73253
3273.03903	0.73307
3271.11031	0.73371
3269.18159	0.73445
3267.25287	0.73529
3265.32415	0.73622
3263.39543	0.73725
3261.46671	0.73832
3259.53799	0.73940
3257.60927	0.74047
3255.68054	0.74151
3253.75182	0.74249
3251.82310	0.74342
3249.89438	0.74429
3247.96566	0.74509
3246.03694	0.74583
3244.10822	0.74649
3242.17950	0.74710
3240.25078	0.74767
3238.32206	0.74824
3236.39334	0.74884
3234.46462	0.74951
3232.53590	0.75025
3230.60718	0.75105
3228.67845	0.75192
3226.74973	0.75285
3224.82101	0.75383
3222.89229	0.75486
3220.96357	0.75592
3219.03485	0.75702
3217.10613	0.75809
3215.17741	0.75912
3213.24869	0.76009
3211.31997	0.76098
3209.39125	0.76179
3207.46253	0.76249
3205.53381	0.76309
3203.60509	0.76359
3201.67637	0.76403
3199.74764	0.76445
3197.81892	0.76487
3195.89020	0.76529
3193.96148	0.76574
3192.03276	0.76621
3190.10404	0.76670
3188.17532	0.76723
3186.24660	0.76782
3184.31788	0.76850
3182.38916	0.76926
3180.46044	0.77007
3178.53172	0.77093
3176.60300	0.77181
3174.67428	0.77271
3172.74555	0.77362
3170.81683	0.77452
3168.88811	0.77537
3166.95939	0.77616
3165.03067	0.77690
3163.10195	0.77760
3161.17323	0.77828
3159.24451	0.77891
3157.31579	0.77949
3155.38707	0.77999
3153.45835	0.78038
3151.52963	0.78066
3149.60091	0.78087
3147.67219	0.78105
3145.74346	0.78121
3143.81474	0.78138
3141.88602	0.78159
3139.95730	0.78185
3138.02858	0.78215
3136.09986	0.78251
3134.17114	0.78293
3132.24242	0.78339
3130.31370	0.78388
3128.38498	0.78439
3126.45626	0.78492
3124.52754	0.78546
3122.59882	0.78596
3120.67010	0.78639
3118.74137	0.78672
3116.81265	0.78691
3114.88393	0.78698
3112.95521	0.78693
3111.02649	0.78681
3109.09777	0.78662
3107.16905	0.78639
3105.24033	0.78615
3103.31161	0.78589
3101.38289	0.78563
3099.45417	0.78539
3097.52545	0.78518
3095.59673	0.78503
3093.66801	0.78490
3091.73929	0.78481
3089.81056	0.78476
3087.88184	0.78474
3085.95312	0.78473
3084.02440	0.78473
3082.09568	0.78475
3080.16696	0.78479
3078.23824	0.78484
3076.30952	0.78490
3074.38080	0.78496
3072.45208	0.78500
3070.52336	0.78500
3068.59464	0.78497
3066.66592	0.78492
3064.73720	0.78486
3062.80847	0.78477
3060.87975	0.78467
3058.95103	0.78457
3057.02231	0.78444
3055.09359	0.78427
3053.16487	0.78409
3051.23615	0.78390
3049.30743	0.78374
3047.37871	0.78360
3045.44999	0.78350
3043.52127	0.78346
3041.59255	0.78344
3039.66383	0.78345
3037.73511	0.78346
3035.80638	0.78348
3033.87766	0.78350
3031.94894	0.78354
3030.02022	0.78361
3028.09150	0.78370
3026.16278	0.78378
3024.23406	0.78383
3022.30534	0.78386
3020.37662	0.78384
3018.44790	0.78377
3016.51918	0.78362
3014.59046	0.78340
3012.66174	0.78310
3010.73302	0.78270
3008.80429	0.78212
3006.87557	0.78127
3004.94685	0.78001
3003.01813	0.77820
3001.08941	0.77573
2999.16069	0.77250
2997.23197	0.76847
2995.30325	0.76363
2993.37453	0.75800
2991.44581	0.75168
2989.51709	0.74481
2987.58837	0.73761
2985.65965	0.73032
2983.73093	0.72323
2981.80221	0.71665
2979.87348	0.71089
2977.94476	0.70624
2976.01604	0.70295
2974.08732	0.70118
2972.15860	0.70098
2970.22988	0.70229
2968.30116	0.70491
2966.37244	0.70859
2964.44372	0.71305
2962.51500	0.71797
2960.58628	0.72304
2958.65756	0.72795
2956.72884	0.73244
2954.80012	0.73626
2952.87139	0.73926
2950.94267	0.74131
2949.01395	0.74234
2947.08523	0.74236
2945.15651	0.74143
2943.22779	0.73970
2941.29907	0.73736
2939.37035	0.73462
2937.44163	0.73170
2935.51291	0.72878
2933.58419	0.72603
2931.65547	0.72357
2929.72675	0.72151
2927.79803	0.71991
2925.86930	0.71885
2923.94058	0.71833
2922.01186	0.71832
2920.08314	0.71876
2918.15442	0.71958
2916.22570	0.72068
2914.29698	0.72193
2912.36826	0.72320
2910.43954	0.72437
2908.51082	0.72536
2906.58210	0.72615
2904.65338	0.72671
2902.72466	0.72706
2900.79594	0.72719
2898.86721	0.72716
2896.93849	0.72701
2895.00977	0.72681
2893.08105	0.72660
2891.15233	0.72643
2889.22361	0.72636
2887.29489	0.72643
2885.36617	0.72665
2883.43745	0.72701
2881.50873	0.72749
2879.58001	0.72809
2877.65129	0.72879
2875.72257	0.72959
2873.79385	0.73045
2871.86513	0.73139
2869.93640	0.73242
2868.00768	0.73351
2866.07896	0.73465
2864.15024	0.73583
2862.22152	0.73705
2860.29280	0.73834
2858.36408	0.73969
2856.43536	0.74110
2854.50664	0.74257
2852.57792	0.74411
2850.64920	0.74572
2848.72048	0.74740
2846.79176	0.74914
2844.86304	0.75089
2842.93431	0.75263
2841.00559	0.75435
2839.07687	0.75604
2837.14815	0.75769
2835.21943	0.75927
2833.29071	0.76077
2831.36199	0.76215
2829.43327	0.76339
2827.50455	0.76448
2825.57583	0.76542
2823.64711	0.76619
2821.71839	0.76682
2819.78967	0.76732
2817.86095	0.76769
2815.93222	0.76795
2814.00350	0.76813
2812.07478	0.76826
2810.14606	0.76837
2808.21734	0.76845
2806.28862	0.76851
2804.35990	0.76855
2802.43118	0.76860
2800.50246	0.76867
2798.57374	0.76873
2796.64502	0.76880
2794.71630	0.76887
2792.78758	0.76894
2790.85886	0.76900
2788.93013	0.76905
2787.00141	0.76906
2785.07269	0.76905
2783.14397	0.76902
2781.21525	0.76898
2779.28653	0.76893
2777.35781	0.76889
2775.42909	0.76888
2773.50037	0.76891
2771.57165	0.76896
2769.64293	0.76902
2767.71421	0.76909
2765.78549	0.76914
2763.85677	0.76917
2761.92805	0.76918
2759.99932	0.76916
2758.07060	0.76910
2756.14188	0.76901
2754.21316	0.76889
2752.28444	0.76875
2750.35572	0.76856
2748.42700	0.76833
2746.49828	0.76806
2744.56956	0.76777
2742.64084	0.76748
2740.71212	0.76721
2738.78340	0.76698
2736.85468	0.76678
2734.92596	0.76659
2732.99723	0.76639
2731.06851	0.76618
2729.13979	0.76598
2727.21107	0.76578
2725.28235	0.76560
2723.35363	0.76543
2721.42491	0.76530
2719.49619	0.76521
2717.56747	0.76516
2715.63875	0.76516
2713.71003	0.76520
2711.78131	0.76525
2709.85259	0.76533
2707.92387	0.76541
2705.99514	0.76552
2704.06642	0.76564
2702.13770	0.76578
2700.20898	0.76592
2698.28026	0.76603
2696.35154	0.76610
2694.42282	0.76614
2692.49410	0.76615
2690.56538	0.76616
2688.63666	0.76617
2686.70794	0.76618
2684.77922	0.76621
2682.85050	0.76624
2680.92178	0.76626
2678.99305	0.76628
2677.06433	0.76629
2675.13561	0.76627
2673.20689	0.76623
2671.27817	0.76616
2669.34945	0.76604
2667.42073	0.76586
2665.49201	0.76564
2663.56329	0.76540
2661.63457	0.76513
2659.70585	0.76485
2657.77713	0.76457
2655.84841	0.76432
2653.91969	0.76413
2651.99097	0.76403
2650.06224	0.76399
2648.13352	0.76401
2646.20480	0.76408
2644.27608	0.76418
2642.34736	0.76430
2640.41864	0.76443
2638.48992	0.76457
2636.56120	0.76469
2634.63248	0.76476
2632.70376	0.76477
2630.77504	0.76470
2628.84632	0.76455
2626.91760	0.76436
2624.98888	0.76412
2623.06015	0.76382
2621.13143	0.76349
2619.20271	0.76315
2617.27399	0.76283
2615.34527	0.76254
2613.41655	0.76226
2611.48783	0.76199
2609.55911	0.76171
2607.63039	0.76143
2605.70167	0.76118
2603.77295	0.76095
2601.84423	0.76075
2599.91551	0.76055
2597.98679	0.76035
2596.05806	0.76014
2594.12934	0.75992
2592.20062	0.75972
2590.27190	0.75952
2588.34318	0.75932
2586.41446	0.75912
2584.48574	0.75893
2582.55702	0.75878
2580.62830	0.75866
2578.69958	0.75857
2576.77086	0.75850
2574.84214	0.75844
2572.91342	0.75838
2570.98470	0.75833
2569.05597	0.75830
2567.12725	0.75829
2565.19853	0.75828
2563.26981	0.75824
2561.34109	0.75818
2559.41237	0.75809
2557.48365	0.75799
2555.55493	0.75788
2553.62621	0.75776
2551.69749	0.75760
2549.76877	0.75743
2547.84005	0.75727
2545.91133	0.75713
2543.98261	0.75700
2542.05389	0.75689
2540.12516	0.75682
2538.19644	0.75678
2536.26772	0.75677
2534.33900	0.75679
2532.41028	0.75682
2530.48156	0.75688
2528.55284	0.75694
2526.62412	0.75698
2524.69540	0.75699
2522.76668	0.75700
2520.83796	0.75699
2518.90924	0.75697
2516.98052	0.75693
2515.05180	0.75687
2513.12307	0.75677
2511.19435	0.75667
2509.26563	0.75658
2507.33691	0.75651
2505.40819	0.75646
2503.47947	0.75645
2501.55075	0.75649
2499.62203	0.75656
2497.69331	0.75664
2495.76459	0.75673
2493.83587	0.75684
2491.90715	0.75698
2489.97843	0.75714
2488.04971	0.75730
2486.12098	0.75748
2484.19226	0.75766
2482.26354	0.75784
2480.33482	0.75803
2478.40610	0.75820
2476.47738	0.75836
2474.54866	0.75850
2472.61994	0.75863
2470.69122	0.75873
2468.76250	0.75882
2466.83378	0.75889
2464.90506	0.75892
2462.97634	0.75891
2461.04762	0.75884
2459.11889	0.75875
2457.19017	0.75865
2455.26145	0.75856
2453.33273	0.75850
2451.40401	0.75845
2449.47529	0.75842
2447.54657	0.75840
2445.61785	0.75839
2443.68913	0.75840
2441.76041	0.75843
2439.83169	0.75845
2437.90297	0.75847
2435.97425	0.75847
2434.04553	0.75843
2432.11681	0.75836
2430.18808	0.75825
2428.25936	0.75811
2426.33064	0.75793
2424.40192	0.75774
2422.47320	0.75754
2420.54448	0.75736
2418.61576	0.75722
2416.68704	0.75710
2414.75832	0.75702
2412.82960	0.75697
2410.90088	0.75693
2408.97216	0.75688
2407.04344	0.75685
2405.11472	0.75682
2403.18599	0.75679
2401.25727	0.75670
2399.32855	0.75653
2397.39983	0.75630
2395.47111	0.75606
2393.54239	0.75583
2391.61367	0.75561
2389.68495	0.75542
2387.75623	0.75527
2385.82751	0.75518
2383.89879	0.75514
2381.97007	0.75513
2380.04135	0.75511
2378.11263	0.75508
2376.18390	0.75504
2374.25518	0.75499
2372.32646	0.75492
2370.39774	0.75481
2368.46902	0.75464
2366.54030	0.75436
2364.61158	0.75391
2362.68286	0.75331
2360.75414	0.75264
2358.82542	0.75204
2356.89670	0.75153
2354.96798	0.75112
2353.03926	0.75079
2351.11054	0.75057
2349.18181	0.75045
2347.25309	0.75043
2345.32437	0.75044
2343.39565	0.75044
2341.46693	0.75046
2339.53821	0.75056
2337.60949	0.75075
2335.68077	0.75099
2333.75205	0.75125
2331.82333	0.75146
2329.89461	0.75161
2327.96589	0.75172
2326.03717	0.75182
2324.10845	0.75198
2322.17973	0.75224
2320.25100	0.75261
2318.32228	0.75304
2316.39356	0.75348
2314.46484	0.75391
2312.53612	0.75429
2310.60740	0.75461
2308.67868	0.75485
2306.74996	0.75500
2304.82124	0.75507
2302.89252	0.75508
2300.96380	0.75506
2299.03508	0.75499
2297.10636	0.75486
2295.17764	0.75468
2293.24891	0.75446
2291.32019	0.75426
2289.39147	0.75410
2287.46275	0.75399
2285.53403	0.75394
2283.60531	0.75394
2281.67659	0.75397
2279.74787	0.75403
2277.81915	0.75408
2275.89043	0.75412
2273.96171	0.75415
2272.03299	0.75415
2270.10427	0.75412
2268.17555	0.75410
2266.24682	0.75415
2264.31810	0.75437
2262.38938	0.75483
2260.46066	0.75553
2258.53194	0.75634
2256.60322	0.75705
2254.67450	0.75737
2252.74578	0.75702
2250.81706	0.75575
2248.88834	0.75335
2246.95962	0.74975
2245.03090	0.74493
2243.10218	0.73895
2241.17346	0.73194
2239.24473	0.72414
2237.31601	0.71585
2235.38729	0.70744
2233.45857	0.69936
2231.52985	0.69211
2229.60113	0.68627
2227.67241	0.68237
2225.74369	0.68078
2223.81497	0.68164
2221.88625	0.68481
2219.95753	0.68992
2218.02881	0.69646
2216.10009	0.70388
2214.17137	0.71168
2212.24265	0.71943
2210.31392	0.72677
2208.38520	0.73342
2206.45648	0.73916
2204.52776	0.74385
2202.59904	0.74740
2200.67032	0.74982
2198.74160	0.75120
2196.81288	0.75171
2194.88416	0.75156
2192.95544	0.75101
2191.02672	0.75033
2189.09800	0.74972
2187.16928	0.74928
2185.24056	0.74901
2183.31183	0.74888
2181.38311	0.74880
2179.45439	0.74871
2177.52567	0.74859
2175.59695	0.74844
2173.66823	0.74830
2171.73951	0.74818
2169.81079	0.74809
2167.88207	0.74805
2165.95335	0.74805
2164.02463	0.74809
2162.09591	0.74814
2160.16719	0.74820
2158.23847	0.74825
2156.30974	0.74826
2154.38102	0.74823
2152.45230	0.74817
2150.52358	0.74807
2148.59486	0.74794
2146.66614	0.74779
2144.73742	0.74764
2142.80870	0.74749
2140.87998	0.74734
2138.95126	0.74720
2137.02254	0.74706
2135.09382	0.74693
2133.16510	0.74683
2131.23638	0.74676
2129.30765	0.74672
2127.37893	0.74672
2125.45021	0.74674
2123.52149	0.74678
2121.59277	0.74682
2119.66405	0.74684
2117.73533	0.74684
2115.80661	0.74682
2113.87789	0.74676
2111.94917	0.74666
2110.02045	0.74654
2108.09173	0.74639
2106.16301	0.74623
2104.23429	0.74604
2102.30557	0.74583
2100.37684	0.74560
2098.44812	0.74536
2096.51940	0.74513
2094.59068	0.74493
2092.66196	0.74475
2090.73324	0.74459
2088.80452	0.74444
2086.87580	0.74430
2084.94708	0.74415
2083.01836	0.74400
2081.08964	0.74382
2079.16092	0.74362
2077.23220	0.74341
2075.30348	0.74317
2073.37475	0.74292
2071.44603	0.74267
2069.51731	0.74241
2067.58859	0.74216
2065.65987	0.74192
2063.73115	0.74171
2061.80243	0.74154
2059.87371	0.74140
2057.94499	0.74131
2056.01627	0.74125
2054.08755	0.74120
2052.15883	0.74116
2050.23011	0.74111
2048.30139	0.74107
2046.37266	0.74101
2044.44394	0.74095
2042.51522	0.74088
2040.58650	0.74078
2038.65778	0.74066
2036.72906	0.74052
2034.80034	0.74036
2032.87162	0.74019
2030.94290	0.74001
2029.01418	0.73983
2027.08546	0.73968
2025.15674	0.73955
2023.22802	0.73943
2021.29930	0.73933
2019.37057	0.73923
2017.44185	0.73912
2015.51313	0.73901
2013.58441	0.73889
2011.65569	0.73875
2009.72697	0.73860
2007.79825	0.73844
2005.86953	0.73826
2003.94081	0.73806
2002.01209	0.73782
2000.08337	0.73756
1998.15465	0.73728
1996.22593	0.73698
1994.29721	0.73667
1992.36849	0.73637
1990.43976	0.73609
1988.51104	0.73583
1986.58232	0.73557
1984.65360	0.73532
1982.72488	0.73510
1980.79616	0.73490
1978.86744	0.73472
1976.93872	0.73457
1975.01000	0.73443
1973.08128	0.73430
1971.15256	0.73418
1969.22384	0.73406
1967.29512	0.73391
1965.36640	0.73375
1963.43767	0.73356
1961.50895	0.73334
1959.58023	0.73308
1957.65151	0.73278
1955.72279	0.73243
1953.79407	0.73204
1951.86535	0.73161
1949.93663	0.73114
1948.00791	0.73064
1946.07919	0.73014
1944.15047	0.72965
1942.22175	0.72918
1940.29303	0.72873
1938.36431	0.72831
1936.43558	0.72794
1934.50686	0.72762
1932.57814	0.72734
1930.64942	0.72711
1928.72070	0.72694
1926.79198	0.72681
1924.86326	0.72674
1922.93454	0.72673
1921.00582	0.72674
1919.07710	0.72679
1917.14838	0.72688
1915.21966	0.72700
1913.29094	0.72716
1911.36222	0.72732
1909.43349	0.72749
1907.50477	0.72765
1905.57605	0.72783
1903.64733	0.72801
1901.71861	0.72818
1899.78989	0.72834
1897.86117	0.72847
1895.93245	0.72856
1894.00373	0.72861
1892.07501	0.72861
1890.14629	0.72857
1888.21757	0.72849
1886.28885	0.72838
1884.36013	0.72825
1882.43141	0.72810
1880.50268	0.72796
1878.57396	0.72782
1876.64524	0.72769
1874.71652	0.72757
1872.78780	0.72745
1870.85908	0.72733
1868.93036	0.72724
1867.00164	0.72719
1865.07292	0.72719
1863.14420	0.72719
1861.21548	0.72719
1859.28676	0.72716
1857.35804	0.72710
1855.42932	0.72701
1853.50059	0.72688
1851.57187	0.72670
1849.64315	0.72649
1847.71443	0.72625
1845.78571	0.72599
1843.85699	0.72570
1841.92827	0.72542
1839.99955	0.72514
1838.07083	0.72486
1836.14211	0.72457
1834.21339	0.72429
1832.28467	0.72403
1830.35595	0.72380
1828.42723	0.72362
1826.49850	0.72346
1824.56978	0.72331
1822.64106	0.72314
1820.71234	0.72293
1818.78362	0.72268
1816.85490	0.72239
1814.92618	0.72205
1812.99746	0.72167
1811.06874	0.72126
1809.14002	0.72082
1807.21130	0.72039
1805.28258	0.71997
1803.35386	0.71956
1801.42514	0.71917
1799.49641	0.71880
1797.56769	0.71847
1795.63897	0.71817
1793.71025	0.71793
1791.78153	0.71776
1789.85281	0.71766
1787.92409	0.71760
1785.99537	0.71758
1784.06665	0.71757
1782.13793	0.71758
1780.20921	0.71758
1778.28049	0.71757
1776.35177	0.71751
1774.42305	0.71740
1772.49433	0.71723
1770.56560	0.71701
1768.63688	0.71674
1766.70816	0.71640
1764.77944	0.71597
1762.85072	0.71542
1760.92200	0.71476
1758.99328	0.71400
1757.06456	0.71316
1755.13584	0.71227
1753.20712	0.71139
1751.27840	0.71056
1749.34968	0.70981
1747.42096	0.70916
1745.49224	0.70863
1743.56351	0.70821
1741.63479	0.70788
1739.70607	0.70764
1737.77735	0.70749
1735.84863	0.70743
1733.91991	0.70747
1731.99119	0.70761
1730.06247	0.70777
1728.13375	0.70791
1726.20503	0.70797
1724.27631	0.70792
1722.34759	0.70776
1720.41887	0.70750
1718.49015	0.70716
1716.56142	0.70680
1714.63270	0.70644
1712.70398	0.70607
1710.77526	0.70569
1708.84654	0.70526
1706.91782	0.70479
1704.98910	0.70427
1703.06038	0.70369
1701.13166	0.70305
1699.20294	0.70237
1697.27422	0.70165
1695.34550	0.70086
1693.41678	0.69996
1691.48806	0.69895
1689.55933	0.69781
1687.63061	0.69659
1685.70189	0.69529
1683.77317	0.69396
1681.84445	0.69263
1679.91573	0.69133
1677.98701	0.69007
1676.05829	0.68883
1674.12957	0.68759
1672.20085	0.68638
1670.27213	0.68519
1668.34341	0.68405
1666.41469	0.68292
1664.48597	0.68176
1662.55725	0.68051
1660.62852	0.67908
1658.69980	0.67735
1656.77108	0.67511
1654.84236	0.67218
1652.91364	0.66829
1650.98492	0.66316
1649.05620	0.65645
1647.12748	0.64786
1645.19876	0.63720
1643.27004	0.62437
1641.34132	0.60941
1639.41260	0.59256
1637.48388	0.57424
1635.55516	0.55509
1633.62643	0.53586
1631.69771	0.51732
1629.76899	0.50016
1627.84027	0.48498
1625.91155	0.47226
1623.98283	0.46235
1622.05411	0.45543
1620.12539	0.45156
1618.19667	0.45058
1616.26795	0.45219
1614.33923	0.45589
1612.41051	0.46112
1610.48179	0.46728
1608.55307	0.47385
1606.62434	0.48046
1604.69562	0.48688
1602.76690	0.49306
1600.83818	0.49916
1598.90946	0.50546
1596.98074	0.51232
1595.05202	0.51998
1593.12330	0.52853
1591.19458	0.53783
1589.26586	0.54768
1587.33714	0.55782
1585.40842	0.56804
1583.47970	0.57812
1581.55098	0.58783
1579.62225	0.59698
1577.69353	0.60538
1575.76481	0.61286
1573.83609	0.61933
1571.90737	0.62477
1569.97865	0.62924
1568.04993	0.63289
1566.12121	0.63591
1564.19249	0.63852
1562.26377	0.64097
1560.33505	0.64347
1558.40633	0.64614
1556.47761	0.64894
1554.54889	0.65173
1552.62017	0.65432
1550.69144	0.65657
1548.76272	0.65836
1546.83400	0.65967
1544.90528	0.66049
1542.97656	0.66086
1541.04784	0.66082
1539.11912	0.66044
1537.19040	0.65974
1535.26168	0.65875
1533.33296	0.65751
1531.40424	0.65602
1529.47552	0.65429
1527.54680	0.65232
1525.61808	0.65016
1523.68935	0.64787
1521.76063	0.64549
1519.83191	0.64305
1517.90319	0.64051
1515.97447	0.63781
1514.04575	0.63490
1512.11703	0.63173
1510.18831	0.62830
1508.25959	0.62468
1506.33087	0.62095
1504.40215	0.61721
1502.47343	0.61359
1500.54471	0.61020
1498.61599	0.60715
1496.68726	0.60457
1494.75854	0.60257
1492.82982	0.60125
1490.90110	0.60070
1488.97238	0.60102
1487.04366	0.60226
1485.11494	0.60441
1483.18622	0.60737
1481.25750	0.61101
1479.32878	0.61508
1477.40006	0.61929
1475.47134	0.62338
1473.54262	0.62712
1471.61390	0.63034
1469.68517	0.63294
1467.75645	0.63486
1465.82773	0.63611
1463.89901	0.63677
1461.97029	0.63691
1460.04157	0.63665
1458.11285	0.63606
1456.18413	0.63527
1454.25541	0.63432
1452.32669	0.63326
1450.39797	0.63206
1448.46925	0.63070
1446.54053	0.62915
1444.61181	0.62738
1442.68309	0.62537
1440.75436	0.62315
1438.82564	0.62079
1436.89692	0.61841
1434.96820	0.61611
1433.03948	0.61399
1431.11076	0.61214
1429.18204	0.61067
1427.25332	0.60963
1425.32460	0.60905
1423.39588	0.60887
1421.46716	0.60897
1419.53844	0.60917
1417.60972	0.60925
1415.68100	0.60899
1413.75227	0.60816
1411.82355	0.60658
1409.89483	0.60419
1407.96611	0.60099
1406.03739	0.59710
1404.10867	0.59275
1402.17995	0.58824
1400.25123	0.58384
1398.32251	0.57979
1396.39379	0.57630
1394.46507	0.57350
1392.53635	0.57150
1390.60763	0.57036
1388.67891	0.57006
1386.75018	0.57050
1384.82146	0.57153
1382.89274	0.57291
1380.96402	0.57441
1379.03530	0.57581
1377.10658	0.57691
1375.17786	0.57756
1373.24914	0.57766
1371.32042	0.57717
1369.39170	0.57612
1367.46298	0.57463
1365.53426	0.57287
1363.60554	0.57104
1361.67682	0.56934
1359.74809	0.56797
1357.81937	0.56711
1355.89065	0.56691
1353.96193	0.56749
1352.03321	0.56891
1350.10449	0.57116
1348.17577	0.57419
1346.24705	0.57791
1344.31833	0.58221
1342.38961	0.58698
1340.46089	0.59210
1338.53217	0.59746
1336.60345	0.60289
1334.67473	0.60825
1332.74601	0.61337
1330.81728	0.61813
1328.88856	0.62241
1326.95984	0.62610
1325.03112	0.62912
1323.10240	0.63138
1321.17368	0.63282
1319.24496	0.63339
1317.31624	0.63311
1315.38752	0.63197
1313.45880	0.63005
1311.53008	0.62745
1309.60136	0.62433
1307.67264	0.62086
1305.74392	0.61726
1303.81519	0.61378
1301.88647	0.61066
1299.95775	0.60812
1298.02903	0.60636
1296.10031	0.60551
1294.17159	0.60561
1292.24287	0.60666
1290.31415	0.60858
1288.38543	0.61123
1286.45671	0.61440
1284.52799	0.61784
1282.59927	0.62132
1280.67055	0.62461
1278.74183	0.62757
1276.81310	0.63007
1274.88438	0.63204
1272.95566	0.63346
1271.02694	0.63435
1269.09822	0.63481
1267.16950	0.63497
1265.24078	0.63501
1263.31206	0.63512
1261.38334	0.63548
1259.45462	0.63624
1257.52590	0.63750
1255.59718	0.63931
1253.66846	0.64167
1251.73974	0.64453
1249.81101	0.64775
1247.88229	0.65118
1245.95357	0.65465
1244.02485	0.65801
1242.09613	0.66114
1240.16741	0.66395
1238.23869	0.66636
1236.30997	0.66832
1234.38125	0.66980
1232.45253	0.67084
1230.52381	0.67148
1228.59509	0.67183
1226.66637	0.67200
1224.73765	0.67209
1222.80893	0.67217
1220.88020	0.67230
1218.95148	0.67246
1217.02276	0.67261
1215.09404	0.67266
1213.16532	0.67249
1211.23660	0.67198
1209.30788	0.67104
1207.37916	0.66963
1205.45044	0.66771
1203.52172	0.66529
1201.59300	0.66236
1199.66428	0.65896
1197.73556	0.65519
1195.80684	0.65117
1193.87811	0.64703
1191.94939	0.64293
1190.02067	0.63902
1188.09195	0.63546
1186.16323	0.63240
1184.23451	0.63002
1182.30579	0.62845
1180.37707	0.62778
1178.44835	0.62794
1176.51963	0.62875
1174.59091	0.62992
1172.66219	0.63116
1170.73347	0.63222
1168.80475	0.63284
1166.87602	0.63284
1164.94730	0.63210
1163.01858	0.63053
1161.08986	0.62815
1159.16114	0.62501
1157.23242	0.62123
1155.30370	0.61697
1153.37498	0.61249
1151.44626	0.60812
1149.51754	0.60427
1147.58882	0.60137
1145.66010	0.59987
1143.73138	0.60006
1141.80266	0.60199
1139.87393	0.60546
1137.94521	0.61005
1136.01649	0.61531
1134.08777	0.62074
1132.15905	0.62587
1130.23033	0.63024
1128.30161	0.63346
1126.37289	0.63521
1124.44417	0.63524
1122.51545	0.63344
1120.58673	0.62981
1118.65801	0.62450
1116.72929	0.61784
1114.80057	0.61023
1112.87184	0.60216
1110.94312	0.59412
1109.01440	0.58669
1107.08568	0.58037
1105.15696	0.57559
1103.22824	0.57265
1101.29952	0.57168
1099.37080	0.57269
1097.44208	0.57556
1095.51336	0.58011
1093.58464	0.58608
1091.65592	0.59322
1089.72720	0.60125
1087.79848	0.60988
1085.86976	0.61883
1083.94103	0.62775
1082.01231	0.63630
1080.08359	0.64417
1078.15487	0.65100
1076.22615	0.65651
1074.29743	0.66041
1072.36871	0.66260
1070.43999	0.66304
1068.51127	0.66184
1066.58255	0.65917
1064.65383	0.65528
1062.72511	0.65040
1060.79639	0.64481
1058.86767	0.63890
1056.93894	0.63310
1055.01022	0.62791
1053.08150	0.62377
1051.15278	0.62107
1049.22406	0.62005
1047.29534	0.62083
1045.36662	0.62336
1043.43790	0.62747
1041.50918	0.63288
1039.58046	0.63926
1037.65174	0.64623
1035.72302	0.65344
1033.79430	0.66056
1031.86558	0.66731
1029.93685	0.67346
1028.00813	0.67885
1026.07941	0.68339
1024.15069	0.68706
1022.22197	0.68995
1020.29325	0.69220
1018.36453	0.69396
1016.43581	0.69539
1014.50709	0.69664
1012.57837	0.69784
1010.64965	0.69905
1008.72093	0.70031
1006.79221	0.70161
1004.86349	0.70293
1002.93476	0.70424
1001.00604	0.70550
999.07732	0.70670
997.14860	0.70782
995.21988	0.70886
993.29116	0.70982
991.36244	0.71073
989.43372	0.71161
987.50500	0.71250
985.57628	0.71339
983.64756	0.71431
981.71884	0.71520
979.79012	0.71605
977.86140	0.71684
975.93268	0.71754
974.00395	0.71811
972.07523	0.71854
970.14651	0.71882
968.21779	0.71896
966.28907	0.71900
964.36035	0.71896
962.43163	0.71887
960.50291	0.71877
958.57419	0.71871
956.64547	0.71875
954.71675	0.71898
952.78803	0.71945
950.85931	0.72020
948.93059	0.72123
947.00186	0.72249
945.07314	0.72392
943.14442	0.72546
941.21570	0.72704
939.28698	0.72860
937.35826	0.73008
935.42954	0.73141
933.50082	0.73257
931.57210	0.73355
929.64338	0.73433
927.71466	0.73486
925.78594	0.73512
923.85722	0.73510
921.92850	0.73483
919.99977	0.73435
918.07105	0.73373
916.14233	0.73300
914.21361	0.73213
912.28489	0.73105
910.35617	0.72965
908.42745	0.72782
906.49873	0.72552
904.57001	0.72275
902.64129	0.71952
900.71257	0.71589
898.78385	0.71192
896.85513	0.70773
894.92641	0.70347
892.99768	0.69929
891.06896	0.69534
889.14024	0.69179
887.21152	0.68882
885.28280	0.68663
883.35408	0.68543
881.42536	0.68538
879.49664	0.68659
877.56792	0.68894
875.63920	0.69210
873.71048	0.69560
871.78176	0.69898
869.85304	0.70182
867.92432	0.70375
865.99560	0.70448
864.06687	0.70379
862.13815	0.70156
860.20943	0.69777
858.28071	0.69253
856.35199	0.68604
854.42327	0.67857
852.49455	0.67049
850.56583	0.66226
848.63711	0.65440
846.70839	0.64748
844.77967	0.64203
842.85095	0.63849
840.92223	0.63701
838.99351	0.63745
837.06478	0.63946
835.13606	0.64266
833.20734	0.64671
831.27862	0.65129
829.34990	0.65609
827.42118	0.66086
825.49246	0.66537
823.56374	0.66948
821.63502	0.67305
819.70630	0.67600
817.77758	0.67831
815.84886	0.68004
813.92014	0.68138
811.99142	0.68253
810.06269	0.68375
808.13397	0.68528
806.20525	0.68728
804.27653	0.68984
802.34781	0.69292
800.41909	0.69641
798.49037	0.70017
796.56165	0.70411
794.63293	0.70815
792.70421	0.71222
790.77549	0.71626
788.84677	0.72019
786.91805	0.72394
784.98933	0.72739
783.06060	0.73046
781.13188	0.73310
779.20316	0.73532
777.27444	0.73715
775.34572	0.73862
773.41700	0.73977
771.48828	0.74064
769.55956	0.74128
767.63084	0.74176
765.70212	0.74214
763.77340	0.74250
761.84468	0.74284
759.91596	0.74319
757.98724	0.74359
756.05852	0.74405
754.12979	0.74459
752.20107	0.74522
750.27235	0.74591
748.34363	0.74663
746.41491	0.74740
744.48619	0.74821
742.55747	0.74909
740.62875	0.75001
738.70003	0.75094
736.77131	0.75185
734.84259	0.75270
732.91387	0.75352
730.98515	0.75431
729.05643	0.75512
727.12770	0.75594
725.19898	0.75680
723.27026	0.75770
721.34154	0.75864
719.41282	0.75962
717.48410	0.76060
715.55538	0.76157
713.62666	0.76248
711.69794	0.76333
709.76922	0.76413
707.84050	0.76491
705.91178	0.76564
703.98306	0.76628
702.05434	0.76682
700.12561	0.76728
698.19689	0.76768
696.26817	0.76803
694.33945	0.76835
692.41073	0.76866
690.48201	0.76896
688.55329	0.76924
686.62457	0.76950
684.69585	0.76976
682.76713	0.77001
680.83841	0.77022
678.90969	0.77038
676.98097	0.77049
675.05225	0.77058
673.12352	0.77070
671.19480	0.77090
669.26608	0.77115
667.33736	0.77143
665.40864	0.77178
663.47992	0.77232
661.55120	0.77309
659.62248	0.77407
657.69376	0.77524
655.76504	0.77657
653.83632	0.77800
651.90760	0.77950
649.97888	0.78101
648.05016	0.78253
646.12144	0.78405
644.19271	0.78556
642.26399	0.78704
640.33527	0.78846
638.40655	0.78979
636.47783	0.79103
634.54911	0.79214
632.62039	0.79309
630.69167	0.79387
628.76295	0.79445
626.83423	0.79485
624.90551	0.79508
622.97679	0.79509
621.04807	0.79480
619.11935	0.79419
617.19062	0.79327
615.26190	0.79204
613.33318	0.79054
611.40446	0.78886
609.47574	0.78715
607.54702	0.78553
605.61830	0.78405
603.68958	0.78273
601.76086	0.78161
599.83214	0.78071
597.90342	0.78010
595.97470	0.77982
594.04598	0.77988
592.11726	0.78026
590.18853	0.78089
588.25981	0.78175
586.33109	0.78285
584.40237	0.78423
582.47365	0.78589
580.54493	0.78778
578.61621	0.78976
576.68749	0.79168
574.75877	0.79340
572.83005	0.79486
570.90133	0.79599
568.97261	0.79666
567.04389	0.79680
565.11517	0.79643
563.18644	0.79561
561.25772	0.79442
559.32900	0.79298
557.40028	0.79146
555.47156	0.79002
553.54284	0.78887
551.61412	0.78828
549.68540	0.78857
547.75668	0.78999
545.82796	0.79272
543.89924	0.79671
541.97052	0.80176
540.04180	0.80755
538.11308	0.81376
536.18436	0.82015
534.25563	0.82648
532.32691	0.83255
530.39819	0.83817
528.46947	0.84319
526.54075	0.84748
524.61203	0.85093
522.68331	0.85351
520.75459	0.85529
518.82587	0.85641
516.89715	0.85710
514.96843	0.85758
513.03971	0.85808
511.11099	0.85874
509.18227	0.85968
507.25354	0.86099
505.32482	0.86271
503.39610	0.86476
501.46738	0.86702
499.53866	0.86941
497.60994	0.87189
495.68122	0.87445
493.75250	0.87702
491.82378	0.87947
489.89506	0.88167
487.96634	0.88355
486.03762	0.88511
484.10890	0.88641
482.18018	0.88756
480.25145	0.88871
478.32273	0.88995
476.39401	0.89133
474.46529	0.89288
472.53657	0.89460
470.60785	0.89655
468.67913	0.89882
466.75041	0.90140
464.82169	0.90420
462.89297	0.90715
460.96425	0.91021
459.03553	0.91332
457.10681	0.91635
455.17809	0.91910
453.24936	0.92139
451.32064	0.92320
449.39192	0.92458
447.46320	0.92567
445.53448	0.92663
443.60576	0.92769
441.67704	0.92898
439.74832	0.93058
437.81960	0.93243
435.89088	0.93491
433.96216	0.93791
432.03344	0.94136
430.10472	0.94516
428.17600	0.94919
426.24728	0.95333
424.31855	0.95747
422.38983	0.96146
420.46111	0.96512
418.53239	0.96827
416.60367	0.96827
414.67495	0.96827
412.74623	0.96827
410.81751	0.96827
408.88879	0.96827
406.96007	0.96827
405.03135	0.96827
403.10263	0.96827
401.17391	0.96827
399.24519	0.96827
