3996.30929	1.00016
3994.38057	1.00016
3992.45185	1.00016
3990.52313	1.00016
3988.59441	1.00016
3986.66569	1.00016
3984.73697	1.00016
3982.80825	1.00016
3980.87953	1.00016
3978.95081	1.00016
3977.02209	1.00016
3975.09337	1.00012
3973.16465	1.00002
3971.23593	0.99993
3969.30720	0.99989
3967.37848	0.99990
3965.44976	0.99990
3963.52104	0.99987
3961.59232	0.99984
3959.66360	0.99981
3957.73488	0.99979
3955.80616	0.99979
3953.87744	0.99978
3951.94872	0.99975
3950.02000	0.99973
3948.09128	0.99969
3946.16256	0.99963
3944.23384	0.99959
3942.30511	0.99954
3940.37639	0.99945
3938.44767	0.99932
3936.51895	0.99920
3934.59023	0.99909
3932.66151	0.99899
3930.73279	0.99893
3928.80407	0.99884
3926.87535	0.99870
3924.94663	0.99855
3923.01791	0.99845
3921.08919	0.99839
3919.16047	0.99835
3917.23175	0.99831
3915.30302	0.99820
3913.37430	0.99808
3911.44558	0.99802
3909.51686	0.99802
3907.58814	0.99804
3905.65942	0.99810
3903.73070	0.99817
3901.80198	0.99816
3899.87326	0.99808
3897.94454	0.99799
3896.01582	0.99787
3894.08710	0.99777
3892.15838	0.99767
3890.22966	0.99756
3888.30094	0.99742
3886.37221	0.99725
3884.44349	0.99707
3882.51477	0.99692
3880.58605	0.99682
3878.65733	0.99669
3876.72861	0.99651
3874.79989	0.99641
3872.87117	0.99651
3870.94245	0.99674
3869.01373	0.99701
3867.08501	0.99731
3865.15629	0.99753
3863.22757	0.99761
3861.29885	0.99760
3859.37012	0.99759
3857.44140	0.99763
3855.51268	0.99769
3853.58396	0.99774
3851.65524	0.99776
3849.72652	0.99772
3847.79780	0.99762
3845.86908	0.99751
3843.94036	0.99742
3842.01164	0.99732
3840.08292	0.99721
3838.15420	0.99711
3836.22548	0.99715
3834.29676	0.99735
3832.36803	0.99755
3830.43931	0.99769
3828.51059	0.99779
3826.58187	0.99787
3824.65315	0.99790
3822.72443	0.99787
3820.79571	0.99789
3818.86699	0.99794
3816.93827	0.99799
3815.00955	0.99803
3813.08083	0.99808
3811.15211	0.99811
3809.22339	0.99813
3807.29467	0.99813
3805.36594	0.99812
3803.43722	0.99811
3801.50850	0.99812
3799.57978	0.99814
3797.65106	0.99821
3795.72234	0.99828
3793.79362	0.99829
3791.86490	0.99827
3789.93618	0.99829
3788.00746	0.99837
3786.07874	0.99841
3784.15002	0.99841
3782.22130	0.99840
3780.29258	0.99836
3778.36386	0.99827
3776.43513	0.99813
3774.50641	0.99793
3772.57769	0.99771
3770.64897	0.99754
3768.72025	0.99737
3766.79153	0.99712
3764.86281	0.99687
3762.93409	0.99671
3761.00537	0.99660
3759.07665	0.99645
3757.14793	0.99625
3755.21921	0.99602
3753.29049	0.99581
3751.36177	0.99570
3749.43304	0.99567
3747.50432	0.99570
3745.57560	0.99575
3743.64688	0.99576
3741.71816	0.99567
3739.78944	0.99551
3737.86072	0.99534
3735.93200	0.99521
3734.00328	0.99513
3732.07456	0.99510
3730.14584	0.99506
3728.21712	0.99502
3726.28840	0.99508
3724.35968	0.99519
3722.43095	0.99519
3720.50223	0.99511
3718.57351	0.99503
3716.64479	0.99495
3714.71607	0.99490
3712.78735	0.99485
3710.85863	0.99479
3708.92991	0.99472
3707.00119	0.99468
3705.07247	0.99460
3703.14375	0.99449
3701.21503	0.99442
3699.28631	0.99437
3697.35759	0.99427
3695.42886	0.99411
3693.50014	0.99389
3691.57142	0.99365
3689.64270	0.99347
3687.71398	0.99334
3685.78526	0.99314
3683.85654	0.99285
3681.92782	0.99253
3679.99910	0.99222
3678.07038	0.99188
3676.14166	0.99149
3674.21294	0.99103
3672.28422	0.99051
3670.35550	0.99002
3668.42678	0.98961
3666.49805	0.98918
3664.56933	0.98868
3662.64061	0.98813
3660.71189	0.98752
3658.78317	0.98688
3656.85445	0.98620
3654.92573	0.98551
3652.99701	0.98485
3651.06829	0.98423
3649.13957	0.98362
3647.21085	0.98299
3645.28213	0.98234
3643.35341	0.98173
3641.42469	0.98116
3639.49596	0.98059
3637.56724	0.98002
3635.63852	0.97941
3633.70980	0.97878
3631.78108	0.97813
3629.85236	0.97743
3627.92364	0.97665
3625.99492	0.97584
3624.06620	0.97503
3622.13748	0.97418
3620.20876	0.97327
3618.28004	0.97227
3616.35132	0.97121
3614.42260	0.97007
3612.49387	0.96886
3610.56515	0.96765
3608.63643	0.96645
3606.70771	0.96524
3604.77899	0.96402
3602.85027	0.96279
3600.92155	0.96156
3598.99283	0.96033
3597.06411	0.95910
3595.13539	0.95786
3593.20667	0.95662
3591.27795	0.95539
3589.34923	0.95423
3587.42051	0.95313
3585.49178	0.95204
3583.56306	0.95095
3581.63434	0.94984
3579.70562	0.94872
3577.77690	0.94756
3575.84818	0.94637
3573.91946	0.94514
3571.99074	0.94392
3570.06202	0.94277
3568.13330	0.94161
3566.20458	0.94040
3564.27586	0.93917
3562.34714	0.93797
3560.41842	0.93679
3558.48970	0.93560
3556.56097	0.93442
3554.63225	0.93329
3552.70353	0.93221
3550.77481	0.93118
3548.84609	0.93019
3546.91737	0.92926
3544.98865	0.92837
3543.05993	0.92749
3541.13121	0.92657
3539.20249	0.92561
3537.27377	0.92462
3535.34505	0.92364
3533.41633	0.92270
3531.48761	0.92178
3529.55888	0.92085
3527.63016	0.91990
3525.70144	0.91897
3523.77272	0.91807
3521.84400	0.91716
3519.91528	0.91624
3517.98656	0.91529
3516.05784	0.91434
3514.12912	0.91338
3512.20040	0.91241
3510.27168	0.91144
3508.34296	0.91045
3506.41424	0.90942
3504.48552	0.90836
3502.55679	0.90726
3500.62807	0.90617
3498.69935	0.90513
3496.77063	0.90414
3494.84191	0.90319
3492.91319	0.90229
3490.98447	0.90141
3489.05575	0.90055
3487.12703	0.89977
3485.19831	0.89909
3483.26959	0.89846
3481.34087	0.89777
3479.41215	0.89701
3477.48343	0.89621
3475.55470	0.89540
3473.62598	0.89455
3471.69726	0.89365
3469.76854	0.89273
3467.83982	0.89184
3465.91110	0.89098
3463.98238	0.89016
3462.05366	0.88939
3460.12494	0.88865
3458.19622	0.88792
3456.26750	0.88721
3454.33878	0.88652
3452.41006	0.88586
3450.48134	0.88523
3448.55262	0.88466
3446.62389	0.88413
3444.69517	0.88360
3442.76645	0.88309
3440.83773	0.88263
3438.90901	0.88221
3436.98029	0.88179
3435.05157	0.88136
3433.12285	0.88093
3431.19413	0.88053
3429.26541	0.88015
3427.33669	0.87979
3425.40797	0.87948
3423.47925	0.87925
3421.55053	0.87908
3419.62180	0.87898
3417.69308	0.87893
3415.76436	0.87886
3413.83564	0.87879
3411.90692	0.87876
3409.97820	0.87880
3408.04948	0.87894
3406.12076	0.87919
3404.19204	0.87952
3402.26332	0.87987
3400.33460	0.88019
3398.40588	0.88050
3396.47716	0.88080
3394.54844	0.88109
3392.61971	0.88142
3390.69099	0.88182
3388.76227	0.88232
3386.83355	0.88288
3384.90483	0.88345
3382.97611	0.88401
3381.04739	0.88458
3379.11867	0.88513
3377.18995	0.88563
3375.26123	0.88616
3373.33251	0.88669
3371.40379	0.88722
3369.47507	0.88773
3367.54635	0.88821
3365.61762	0.88859
3363.68890	0.88887
3361.76018	0.88911
3359.83146	0.88931
3357.90274	0.88948
3355.97402	0.88961
3354.04530	0.88976
3352.11658	0.88996
3350.18786	0.89011
3348.25914	0.89017
3346.33042	0.89016
3344.40170	0.89010
3342.47298	0.89001
3340.54426	0.88986
3338.61553	0.88968
3336.68681	0.88946
3334.75809	0.88920
3332.82937	0.88889
3330.90065	0.88853
3328.97193	0.88811
3327.04321	0.88762
3325.11449	0.88704
3323.18577	0.88635
3321.25705	0.88553
3319.32833	0.88457
3317.39961	0.88348
3315.47089	0.88229
3313.54217	0.88093
3311.61345	0.87932
3309.68472	0.87743
3307.75600	0.87526
3305.82728	0.87278
3303.89856	0.86996
3301.96984	0.86681
3300.04112	0.86337
3298.11240	0.85968
3296.18368	0.85575
3294.25496	0.85164
3292.32624	0.84741
3290.39752	0.84315
3288.46880	0.83890
3286.54008	0.83468
3284.61136	0.83046
3282.68263	0.82617
3280.75391	0.82171
3278.82519	0.81695
3276.89647	0.81188
3274.96775	0.80664
3273.03903	0.80154
3271.11031	0.79690
3269.18159	0.79307
3267.25287	0.79031
3265.32415	0.78879
3263.39543	0.78857
3261.46671	0.78968
3259.53799	0.79207
3257.60927	0.79569
3255.68054	0.80042
3253.75182	0.80608
3251.82310	0.81249
3249.89438	0.81937
3247.96566	0.82637
3246.03694	0.83310
3244.10822	0.83920
3242.17950	0.84439
3240.25078	0.84853
3238.32206	0.85169
3236.39334	0.85411
3234.46462	0.85605
3232.53590	0.85771
3230.60718	0.85922
3228.67845	0.86066
3226.74973	0.86208
3224.82101	0.86348
3222.89229	0.86485
3220.96357	0.86618
3219.03485	0.86752
3217.10613	0.86883
3215.17741	0.87008
3213.24869	0.87126
3211.31997	0.87241
3209.39125	0.87352
3207.46253	0.87457
3205.53381	0.87553
3203.60509	0.87634
3201.67637	0.87703
3199.74764	0.87761
3197.81892	0.87815
3195.89020	0.87868
3193.96148	0.87921
3192.03276	0.87977
3190.10404	0.88037
3188.17532	0.88100
3186.24660	0.88164
3184.31788	0.88227
3182.38916	0.88291
3180.46044	0.88358
3178.53172	0.88428
3176.60300	0.88498
3174.67428	0.88567
3172.74555	0.88636
3170.81683	0.88705
3168.88811	0.88772
3166.95939	0.88831
3165.03067	0.88883
3163.10195	0.88930
3161.17323	0.88973
3159.24451	0.89016
3157.31579	0.89061
3155.38707	0.89110
3153.45835	0.89163
3151.52963	0.89216
3149.60091	0.89266
3147.67219	0.89315
3145.74346	0.89365
3143.81474	0.89415
3141.88602	0.89467
3139.95730	0.89521
3138.02858	0.89569
3136.09986	0.89588
3134.17114	0.89548
3132.24242	0.89432
3130.31370	0.89247
3128.38498	0.89011
3126.45626	0.88742
3124.52754	0.88449
3122.59882	0.88138
3120.67010	0.87826
3118.74137	0.87532
3116.81265	0.87274
3114.88393	0.87064
3112.95521	0.86912
3111.02649	0.86824
3109.09777	0.86801
3107.16905	0.86845
3105.24033	0.86953
3103.31161	0.87113
3101.38289	0.87304
3099.45417	0.87496
3097.52545	0.87656
3095.59673	0.87765
3093.66801	0.87833
3091.73929	0.87881
3089.81056	0.87921
3087.88184	0.87950
3085.95312	0.87959
3084.02440	0.87952
3082.09568	0.87943
3080.16696	0.87950
3078.23824	0.87985
3076.30952	0.88055
3074.38080	0.88161
3072.45208	0.88299
3070.52336	0.88463
3068.59464	0.88645
3066.66592	0.88842
3064.73720	0.89047
3062.80847	0.89255
3060.87975	0.89463
3058.95103	0.89666
3057.02231	0.89860
3055.09359	0.90041
3053.16487	0.90208
3051.23615	0.90355
3049.30743	0.90476
3047.37871	0.90568
3045.44999	0.90634
3043.52127	0.90682
3041.59255	0.90722
3039.66383	0.90761
3037.73511	0.90797
3035.80638	0.90831
3033.87766	0.90860
3031.94894	0.90884
3030.02022	0.90906
3028.09150	0.90929
3026.16278	0.90956
3024.23406	0.90985
3022.30534	0.91014
3020.37662	0.91046
3018.44790	0.91078
3016.51918	0.91108
3014.59046	0.91135
3012.66174	0.91159
3010.73302	0.91181
3008.80429	0.91206
3006.87557	0.91237
3004.94685	0.91274
3003.01813	0.91316
3001.08941	0.91363
2999.16069	0.91411
2997.23197	0.91460
2995.30325	0.91510
2993.37453	0.91557
2991.44581	0.91602
2989.51709	0.91641
2987.58837	0.91674
2985.65965	0.91699
2983.73093	0.91718
2981.80221	0.91728
2979.87348	0.91723
2977.94476	0.91703
2976.01604	0.91669
2974.08732	0.91631
2972.15860	0.91594
2970.22988	0.91556
2968.30116	0.91513
2966.37244	0.91464
2964.44372	0.91411
2962.51500	0.91355
2960.58628	0.91297
2958.65756	0.91239
2956.72884	0.91182
2954.80012	0.91126
2952.87139	0.91070
2950.94267	0.91015
2949.01395	0.90964
2947.08523	0.90914
2945.15651	0.90859
2943.22779	0.90798
2941.29907	0.90733
2939.37035	0.90667
2937.44163	0.90604
2935.51291	0.90547
2933.58419	0.90499
2931.65547	0.90462
2929.72675	0.90440
2927.79803	0.90436
2925.86930	0.90455
2923.94058	0.90495
2922.01186	0.90556
2920.08314	0.90638
2918.15442	0.90736
2916.22570	0.90843
2914.29698	0.90954
2912.36826	0.91067
2910.43954	0.91176
2908.51082	0.91275
2906.58210	0.91361
2904.65338	0.91432
2902.72466	0.91485
2900.79594	0.91522
2898.86721	0.91546
2896.93849	0.91560
2895.00977	0.91569
2893.08105	0.91575
2891.15233	0.91578
2889.22361	0.91579
2887.29489	0.91580
2885.36617	0.91583
2883.43745	0.91584
2881.50873	0.91582
2879.58001	0.91572
2877.65129	0.91551
2875.72257	0.91517
2873.79385	0.91472
2871.86513	0.91416
2869.93640	0.91352
2868.00768	0.91277
2866.07896	0.91193
2864.15024	0.91107
2862.22152	0.91024
2860.29280	0.90950
2858.36408	0.90889
2856.43536	0.90846
2854.50664	0.90824
2852.57792	0.90824
2850.64920	0.90847
2848.72048	0.90892
2846.79176	0.90956
2844.86304	0.91036
2842.93431	0.91122
2841.00559	0.91209
2839.07687	0.91288
2837.14815	0.91359
2835.21943	0.91420
2833.29071	0.91469
2831.36199	0.91505
2829.43327	0.91531
2827.50455	0.91548
2825.57583	0.91554
2823.64711	0.91552
2821.71839	0.91549
2819.78967	0.91551
2817.86095	0.91560
2815.93222	0.91573
2814.00350	0.91590
2812.07478	0.91612
2810.14606	0.91641
2808.21734	0.91674
2806.28862	0.91708
2804.35990	0.91737
2802.43118	0.91762
2800.50246	0.91784
2798.57374	0.91806
2796.64502	0.91826
2794.71630	0.91844
2792.78758	0.91864
2790.85886	0.91883
2788.93013	0.91896
2787.00141	0.91901
2785.07269	0.91900
2783.14397	0.91896
2781.21525	0.91887
2779.28653	0.91870
2777.35781	0.91844
2775.42909	0.91810
2773.50037	0.91773
2771.57165	0.91732
2769.64293	0.91686
2767.71421	0.91636
2765.78549	0.91583
2763.85677	0.91533
2761.92805	0.91489
2759.99932	0.91450
2758.07060	0.91418
2756.14188	0.91396
2754.21316	0.91386
2752.28444	0.91385
2750.35572	0.91389
2748.42700	0.91397
2746.49828	0.91407
2744.56956	0.91420
2742.64084	0.91432
2740.71212	0.91439
2738.78340	0.91442
2736.85468	0.91439
2734.92596	0.91430
2732.99723	0.91414
2731.06851	0.91392
2729.13979	0.91366
2727.21107	0.91335
2725.28235	0.91301
2723.35363	0.91263
2721.42491	0.91223
2719.49619	0.91184
2717.56747	0.91149
2715.63875	0.91119
2713.71003	0.91092
2711.78131	0.91067
2709.85259	0.91046
2707.92387	0.91033
2705.99514	0.91024
2704.06642	0.91016
2702.13770	0.91009
2700.20898	0.91002
2698.28026	0.90994
2696.35154	0.90983
2694.42282	0.90972
2692.49410	0.90960
2690.56538	0.90947
2688.63666	0.90933
2686.70794	0.90919
2684.77922	0.90906
2682.85050	0.90896
2680.92178	0.90885
2678.99305	0.90873
2677.06433	0.90864
2675.13561	0.90858
2673.20689	0.90858
2671.27817	0.90865
2669.34945	0.90875
2667.42073	0.90884
2665.49201	0.90890
2663.56329	0.90893
2661.63457	0.90891
2659.70585	0.90878
2657.77713	0.90853
2655.84841	0.90820
2653.91969	0.90780
2651.99097	0.90736
2650.06224	0.90689
2648.13352	0.90641
2646.20480	0.90593
2644.27608	0.90545
2642.34736	0.90500
2640.41864	0.90461
2638.48992	0.90431
2636.56120	0.90411
2634.63248	0.90403
2632.70376	0.90408
2630.77504	0.90424
2628.84632	0.90451
2626.91760	0.90484
2624.98888	0.90521
2623.06015	0.90558
2621.13143	0.90590
2619.20271	0.90618
2617.27399	0.90641
2615.34527	0.90659
2613.41655	0.90669
2611.48783	0.90672
2609.55911	0.90672
2607.63039	0.90669
2605.70167	0.90666
2603.77295	0.90661
2601.84423	0.90651
2599.91551	0.90636
2597.98679	0.90621
2596.05806	0.90612
2594.12934	0.90609
2592.20062	0.90610
2590.27190	0.90615
2588.34318	0.90621
2586.41446	0.90626
2584.48574	0.90630
2582.55702	0.90633
2580.62830	0.90634
2578.69958	0.90634
2576.77086	0.90632
2574.84214	0.90629
2572.91342	0.90623
2570.98470	0.90616
2569.05597	0.90606
2567.12725	0.90594
2565.19853	0.90576
2563.26981	0.90552
2561.34109	0.90523
2559.41237	0.90490
2557.48365	0.90459
2555.55493	0.90430
2553.62621	0.90406
2551.69749	0.90387
2549.76877	0.90371
2547.84005	0.90356
2545.91133	0.90349
2543.98261	0.90349
2542.05389	0.90355
2540.12516	0.90366
2538.19644	0.90384
2536.26772	0.90404
2534.33900	0.90426
2532.41028	0.90451
2530.48156	0.90478
2528.55284	0.90506
2526.62412	0.90533
2524.69540	0.90557
2522.76668	0.90578
2520.83796	0.90598
2518.90924	0.90620
2516.98052	0.90644
2515.05180	0.90668
2513.12307	0.90692
2511.19435	0.90712
2509.26563	0.90728
2507.33691	0.90741
2505.40819	0.90749
2503.47947	0.90753
2501.55075	0.90755
2499.62203	0.90756
2497.69331	0.90754
2495.76459	0.90751
2493.83587	0.90747
2491.90715	0.90739
2489.97843	0.90728
2488.04971	0.90714
2486.12098	0.90693
2484.19226	0.90670
2482.26354	0.90646
2480.33482	0.90623
2478.40610	0.90600
2476.47738	0.90579
2474.54866	0.90563
2472.61994	0.90551
2470.69122	0.90542
2468.76250	0.90534
2466.83378	0.90530
2464.90506	0.90529
2462.97634	0.90532
2461.04762	0.90536
2459.11889	0.90541
2457.19017	0.90549
2455.26145	0.90559
2453.33273	0.90566
2451.40401	0.90571
2449.47529	0.90575
2447.54657	0.90580
2445.61785	0.90587
2443.68913	0.90596
2441.76041	0.90603
2439.83169	0.90610
2437.90297	0.90620
2435.97425	0.90631
2434.04553	0.90642
2432.11681	0.90650
2430.18808	0.90657
2428.25936	0.90664
2426.33064	0.90669
2424.40192	0.90671
2422.47320	0.90671
2420.54448	0.90673
2418.61576	0.90675
2416.68704	0.90676
2414.75832	0.90677
2412.82960	0.90681
2410.90088	0.90688
2408.97216	0.90698
2407.04344	0.90709
2405.11472	0.90721
2403.18599	0.90732
2401.25727	0.90741
2399.32855	0.90750
2397.39983	0.90759
2395.47111	0.90764
2393.54239	0.90761
2391.61367	0.90749
2389.68495	0.90733
2387.75623	0.90713
2385.82751	0.90685
2383.89879	0.90643
2381.97007	0.90587
2380.04135	0.90531
2378.11263	0.90476
2376.18390	0.90418
2374.25518	0.90365
2372.32646	0.90339
2370.39774	0.90348
2368.46902	0.90352
2366.54030	0.90303
2364.61158	0.90217
2362.68286	0.90155
2360.75414	0.90136
2358.82542	0.90148
2356.89670	0.90173
2354.96798	0.90196
2353.03926	0.90220
2351.11054	0.90249
2349.18181	0.90282
2347.25309	0.90318
2345.32437	0.90356
2343.39565	0.90395
2341.46693	0.90436
2339.53821	0.90479
2337.60949	0.90531
2335.68077	0.90599
2333.75205	0.90679
2331.82333	0.90743
2329.89461	0.90758
2327.96589	0.90743
2326.03717	0.90757
2324.10845	0.90824
2322.17973	0.90911
2320.25100	0.90993
2318.32228	0.91067
2316.39356	0.91129
2314.46484	0.91186
2312.53612	0.91245
2310.60740	0.91307
2308.67868	0.91371
2306.74996	0.91425
2304.82124	0.91465
2302.89252	0.91499
2300.96380	0.91535
2299.03508	0.91573
2297.10636	0.91606
2295.17764	0.91634
2293.24891	0.91663
2291.32019	0.91693
2289.39147	0.91722
2287.46275	0.91744
2285.53403	0.91758
2283.60531	0.91769
2281.67659	0.91776
2279.74787	0.91778
2277.81915	0.91773
2275.89043	0.91764
2273.96171	0.91752
2272.03299	0.91736
2270.10427	0.91718
2268.17555	0.91700
2266.24682	0.91680
2264.31810	0.91660
2262.38938	0.91642
2260.46066	0.91629
2258.53194	0.91620
2256.60322	0.91617
2254.67450	0.91618
2252.74578	0.91622
2250.81706	0.91628
2248.88834	0.91638
2246.95962	0.91656
2245.03090	0.91683
2243.10218	0.91718
2241.17346	0.91760
2239.24473	0.91809
2237.31601	0.91860
2235.38729	0.91910
2233.45857	0.91958
2231.52985	0.92006
2229.60113	0.92054
2227.67241	0.92096
2225.74369	0.92140
2223.81497	0.92183
2221.88625	0.92225
2219.95753	0.92263
2218.02881	0.92293
2216.10009	0.92312
2214.17137	0.92323
2212.24265	0.92327
2210.31392	0.92330
2208.38520	0.92333
2206.45648	0.92337
2204.52776	0.92340
2202.59904	0.92341
2200.67032	0.92337
2198.74160	0.92328
2196.81288	0.92318
2194.88416	0.92308
2192.95544	0.92303
2191.02672	0.92305
2189.09800	0.92312
2187.16928	0.92320
2185.24056	0.92330
2183.31183	0.92341
2181.38311	0.92353
2179.45439	0.92363
2177.52567	0.92371
2175.59695	0.92380
2173.66823	0.92391
2171.73951	0.92401
2169.81079	0.92405
2167.88207	0.92404
2165.95335	0.92395
2164.02463	0.92380
2162.09591	0.92359
2160.16719	0.92338
2158.23847	0.92319
2156.30974	0.92305
2154.38102	0.92296
2152.45230	0.92289
2150.52358	0.92283
2148.59486	0.92278
2146.66614	0.92277
2144.73742	0.92278
2142.80870	0.92282
2140.87998	0.92289
2138.95126	0.92300
2137.02254	0.92315
2135.09382	0.92330
2133.16510	0.92342
2131.23638	0.92350
2129.30765	0.92355
2127.37893	0.92360
2125.45021	0.92362
2123.52149	0.92364
2121.59277	0.92368
2119.66405	0.92372
2117.73533	0.92376
2115.80661	0.92377
2113.87789	0.92375
2111.94917	0.92372
2110.02045	0.92370
2108.09173	0.92367
2106.16301	0.92363
2104.23429	0.92360
2102.30557	0.92358
2100.37684	0.92353
2098.44812	0.92346
2096.51940	0.92339
2094.59068	0.92332
2092.66196	0.92325
2090.73324	0.92319
2088.80452	0.92312
2086.87580	0.92305
2084.94708	0.92296
2083.01836	0.92285
2081.08964	0.92270
2079.16092	0.92251
2077.23220	0.92226
2075.30348	0.92200
2073.37475	0.92174
2071.44603	0.92148
2069.51731	0.92123
2067.58859	0.92099
2065.65987	0.92072
2063.73115	0.92044
2061.80243	0.92014
2059.87371	0.91984
2057.94499	0.91960
2056.01627	0.91940
2054.08755	0.91927
2052.15883	0.91920
2050.23011	0.91919
2048.30139	0.91922
2046.37266	0.91929
2044.44394	0.91938
2042.51522	0.91947
2040.58650	0.91954
2038.65778	0.91960
2036.72906	0.91967
2034.80034	0.91975
2032.87162	0.91983
2030.94290	0.91989
2029.01418	0.91991
2027.08546	0.91986
2025.15674	0.91975
2023.22802	0.91959
2021.29930	0.91943
2019.37057	0.91929
2017.44185	0.91917
2015.51313	0.91908
2013.58441	0.91901
2011.65569	0.91892
2009.72697	0.91879
2007.79825	0.91861
2005.86953	0.91837
2003.94081	0.91810
2002.01209	0.91782
2000.08337	0.91756
1998.15465	0.91732
1996.22593	0.91711
1994.29721	0.91688
1992.36849	0.91663
1990.43976	0.91637
1988.51104	0.91612
1986.58232	0.91590
1984.65360	0.91571
1982.72488	0.91554
1980.79616	0.91540
1978.86744	0.91529
1976.93872	0.91522
1975.01000	0.91516
1973.08128	0.91508
1971.15256	0.91498
1969.22384	0.91487
1967.29512	0.91478
1965.36640	0.91470
1963.43767	0.91466
1961.50895	0.91466
1959.58023	0.91465
1957.65151	0.91463
1955.72279	0.91456
1953.79407	0.91444
1951.86535	0.91426
1949.93663	0.91398
1948.00791	0.91360
1946.07919	0.91314
1944.15047	0.91259
1942.22175	0.91196
1940.29303	0.91125
1938.36431	0.91048
1936.43558	0.90970
1934.50686	0.90893
1932.57814	0.90824
1930.64942	0.90767
1928.72070	0.90719
1926.79198	0.90669
1924.86326	0.90609
1922.93454	0.90534
1921.00582	0.90451
1919.07710	0.90365
1917.14838	0.90286
1915.21966	0.90217
1913.29094	0.90160
1911.36222	0.90118
1909.43349	0.90093
1907.50477	0.90084
1905.57605	0.90089
1903.64733	0.90107
1901.71861	0.90141
1899.78989	0.90193
1897.86117	0.90263
1895.93245	0.90348
1894.00373	0.90444
1892.07501	0.90539
1890.14629	0.90623
1888.21757	0.90685
1886.28885	0.90720
1884.36013	0.90736
1882.43141	0.90743
1880.50268	0.90747
1878.57396	0.90752
1876.64524	0.90758
1874.71652	0.90765
1872.78780	0.90769
1870.85908	0.90772
1868.93036	0.90772
1867.00164	0.90770
1865.07292	0.90769
1863.14420	0.90768
1861.21548	0.90765
1859.28676	0.90756
1857.35804	0.90743
1855.42932	0.90725
1853.50059	0.90703
1851.57187	0.90681
1849.64315	0.90658
1847.71443	0.90630
1845.78571	0.90597
1843.85699	0.90562
1841.92827	0.90524
1839.99955	0.90477
1838.07083	0.90425
1836.14211	0.90369
1834.21339	0.90314
1832.28467	0.90262
1830.35595	0.90219
1828.42723	0.90188
1826.49850	0.90170
1824.56978	0.90161
1822.64106	0.90158
1820.71234	0.90162
1818.78362	0.90174
1816.85490	0.90192
1814.92618	0.90214
1812.99746	0.90241
1811.06874	0.90271
1809.14002	0.90298
1807.21130	0.90316
1805.28258	0.90325
1803.35386	0.90320
1801.42514	0.90295
1799.49641	0.90254
1797.56769	0.90199
1795.63897	0.90136
1793.71025	0.90071
1791.78153	0.90012
1789.85281	0.89960
1787.92409	0.89912
1785.99537	0.89870
1784.06665	0.89838
1782.13793	0.89818
1780.20921	0.89811
1778.28049	0.89814
1776.35177	0.89830
1774.42305	0.89862
1772.49433	0.89905
1770.56560	0.89956
1768.63688	0.90008
1766.70816	0.90055
1764.77944	0.90091
1762.85072	0.90110
1760.92200	0.90117
1758.99328	0.90114
1757.06456	0.90103
1755.13584	0.90088
1753.20712	0.90073
1751.27840	0.90051
1749.34968	0.90019
1747.42096	0.89980
1745.49224	0.89941
1743.56351	0.89903
1741.63479	0.89867
1739.70607	0.89832
1737.77735	0.89807
1735.84863	0.89792
1733.91991	0.89778
1731.99119	0.89764
1730.06247	0.89749
1728.13375	0.89736
1726.20503	0.89727
1724.27631	0.89724
1722.34759	0.89727
1720.41887	0.89736
1718.49015	0.89748
1716.56142	0.89760
1714.63270	0.89767
1712.70398	0.89763
1710.77526	0.89746
1708.84654	0.89724
1706.91782	0.89699
1704.98910	0.89675
1703.06038	0.89653
1701.13166	0.89630
1699.20294	0.89601
1697.27422	0.89562
1695.34550	0.89514
1693.41678	0.89463
1691.48806	0.89410
1689.55933	0.89354
1687.63061	0.89292
1685.70189	0.89219
1683.77317	0.89133
1681.84445	0.89033
1679.91573	0.88911
1677.98701	0.88758
1676.05829	0.88580
1674.12957	0.88384
1672.20085	0.88179
1670.27213	0.87956
1668.34341	0.87710
1666.41469	0.87453
1664.48597	0.87194
1662.55725	0.86933
1660.62852	0.86678
1658.69980	0.86437
1656.77108	0.86217
1654.84236	0.86010
1652.91364	0.85792
1650.98492	0.85561
1649.05620	0.85343
1647.12748	0.85146
1645.19876	0.84900
1643.27004	0.84443
1641.34132	0.83535
1639.41260	0.81927
1637.48388	0.79458
1635.55516	0.76067
1633.62643	0.71760
1631.69771	0.66647
1629.76899	0.60967
1627.84027	0.55052
1625.91155	0.49223
1623.98283	0.43726
1622.05411	0.38770
1620.12539	0.34583
1618.19667	0.31404
1616.26795	0.29431
1614.33923	0.28779
1612.41051	0.29478
1610.48179	0.31434
1608.55307	0.34376
1606.62434	0.37870
1604.69562	0.41402
1602.76690	0.44504
1600.83818	0.46895
1598.90946	0.48533
1596.98074	0.49540
1595.05202	0.50111
1593.12330	0.50437
1591.19458	0.50615
1589.26586	0.50694
1587.33714	0.50748
1585.40842	0.50923
1583.47970	0.51407
1581.55098	0.52376
1579.62225	0.53927
1577.69353	0.56059
1575.76481	0.58691
1573.83609	0.61678
1571.90737	0.64800
1569.97865	0.67785
1568.04993	0.70383
1566.12121	0.72461
1564.19249	0.74033
1562.26377	0.75223
1560.33505	0.76190
1558.40633	0.77053
1556.47761	0.77838
1554.54889	0.78471
1552.62017	0.78872
1550.69144	0.79075
1548.76272	0.79232
1546.83400	0.79502
1544.90528	0.79949
1542.97656	0.80548
1541.04784	0.81225
1539.11912	0.81806
1537.19040	0.82039
1535.26168	0.81654
1533.33296	0.80396
1531.40424	0.78104
1529.47552	0.74793
1527.54680	0.70647
1525.61808	0.65954
1523.68935	0.61072
1521.76063	0.56327
1519.83191	0.51954
1517.90319	0.48133
1515.97447	0.45043
1514.04575	0.42873
1512.11703	0.41799
1510.18831	0.41961
1508.25959	0.43400
1506.33087	0.45932
1504.40215	0.49154
1502.47343	0.52599
1500.54471	0.55876
1498.61599	0.58735
1496.68726	0.61023
1494.75854	0.62643
1492.82982	0.63623
1490.90110	0.64127
1488.97238	0.64385
1487.04366	0.64608
1485.11494	0.64947
1483.18622	0.65443
1481.25750	0.66082
1479.32878	0.66890
1477.40006	0.67928
1475.47134	0.69239
1473.54262	0.70818
1471.61390	0.72603
1469.68517	0.74448
1467.75645	0.76125
1465.82773	0.77452
1463.89901	0.78409
1461.97029	0.79088
1460.04157	0.79556
1458.11285	0.79821
1456.18413	0.79896
1454.25541	0.79823
1452.32669	0.79630
1450.39797	0.79321
1448.46925	0.78899
1446.54053	0.78405
1444.61181	0.77915
1442.68309	0.77444
1440.75436	0.76866
1438.82564	0.75969
1436.89692	0.74629
1434.96820	0.72949
1433.03948	0.71178
1431.11076	0.69563
1429.18204	0.68276
1427.25332	0.67404
1425.32460	0.66975
1423.39588	0.66979
1421.46716	0.67395
1419.53844	0.68194
1417.60972	0.69326
1415.68100	0.70683
1413.75227	0.72133
1411.82355	0.73581
1409.89483	0.75008
1407.96611	0.76421
1406.03739	0.77780
1404.10867	0.78930
1402.17995	0.79677
1400.25123	0.79944
1398.32251	0.79863
1396.39379	0.79685
1394.46507	0.79599
1392.53635	0.79681
1390.60763	0.79940
1388.67891	0.80365
1386.75018	0.80936
1384.82146	0.81625
1382.89274	0.82395
1380.96402	0.83188
1379.03530	0.83918
1377.10658	0.84491
1375.17786	0.84861
1373.24914	0.85053
1371.32042	0.85112
1369.39170	0.85024
1367.46298	0.84712
1365.53426	0.84129
1363.60554	0.83287
1361.67682	0.82223
1359.74809	0.80925
1357.81937	0.79320
1355.89065	0.77291
1353.96193	0.74731
1352.03321	0.71566
1350.10449	0.67768
1348.17577	0.63376
1346.24705	0.58525
1344.31833	0.53436
1342.38961	0.48356
1340.46089	0.43519
1338.53217	0.39200
1336.60345	0.35744
1334.67473	0.33427
1332.74601	0.32259
1330.81728	0.31993
1328.88856	0.32358
1326.95984	0.33229
1325.03112	0.34591
1323.10240	0.36413
1321.17368	0.38602
1319.24496	0.40998
1317.31624	0.43401
1315.38752	0.45632
1313.45880	0.47593
1311.53008	0.49282
1309.60136	0.50773
1307.67264	0.52177
1305.74392	0.53603
1303.81519	0.55115
1301.88647	0.56769
1299.95775	0.58649
1298.02903	0.60782
1296.10031	0.62993
1294.17159	0.64913
1292.24287	0.66214
1290.31415	0.66789
1288.38543	0.66749
1286.45671	0.66299
1284.52799	0.65650
1282.59927	0.64961
1280.67055	0.64275
1278.74183	0.63528
1276.81310	0.62651
1274.88438	0.61679
1272.95566	0.60736
1271.02694	0.59952
1269.09822	0.59419
1267.16950	0.59183
1265.24078	0.59268
1263.31206	0.59676
1261.38334	0.60385
1259.45462	0.61335
1257.52590	0.62457
1255.59718	0.63706
1253.66846	0.65073
1251.73974	0.66578
1249.81101	0.68261
1247.88229	0.70144
1245.95357	0.72176
1244.02485	0.74161
1242.09613	0.75790
1240.16741	0.76793
1238.23869	0.77098
1236.30997	0.76830
1234.38125	0.76196
1232.45253	0.75367
1230.52381	0.74464
1228.59509	0.73571
1226.66637	0.72738
1224.73765	0.71988
1222.80893	0.71343
1220.88020	0.70853
1218.95148	0.70588
1217.02276	0.70602
1215.09404	0.70909
1213.16532	0.71485
1211.23660	0.72263
1209.30788	0.73134
1207.37916	0.73952
1205.45044	0.74572
1203.52172	0.74920
1201.59300	0.75043
1199.66428	0.75068
1197.73556	0.75113
1195.80684	0.75244
1193.87811	0.75486
1191.94939	0.75838
1190.02067	0.76275
1188.09195	0.76766
1186.16323	0.77297
1184.23451	0.77890
1182.30579	0.78565
1180.37707	0.79313
1178.44835	0.80089
1176.51963	0.80838
1174.59091	0.81456
1172.66219	0.81770
1170.73347	0.81656
1168.80475	0.81177
1166.87602	0.80510
1164.94730	0.79761
1163.01858	0.78880
1161.08986	0.77747
1159.16114	0.76331
1157.23242	0.74715
1155.30370	0.72951
1153.37498	0.70994
1151.44626	0.68817
1149.51754	0.66519
1147.58882	0.64279
1145.66010	0.62265
1143.73138	0.60583
1141.80266	0.59291
1139.87393	0.58430
1137.94521	0.58009
1136.01649	0.57993
1134.08777	0.58326
1132.15905	0.59021
1130.23033	0.60132
1128.30161	0.61619
1126.37289	0.63302
1124.44417	0.64959
1122.51545	0.66484
1120.58673	0.67902
1118.65801	0.69192
1116.72929	0.70151
1114.80057	0.70550
1112.87184	0.70347
1110.94312	0.69682
1109.01440	0.68747
1107.08568	0.67729
1105.15696	0.66790
1103.22824	0.66061
1101.29952	0.65633
1099.37080	0.65563
1097.44208	0.65864
1095.51336	0.66501
1093.58464	0.67415
1091.65592	0.68572
1089.72720	0.69989
1087.79848	0.71672
1085.86976	0.73497
1083.94103	0.75210
1082.01231	0.76593
1080.08359	0.77555
1078.15487	0.78077
1076.22615	0.78140
1074.29743	0.77766
1072.36871	0.77068
1070.43999	0.76237
1068.51127	0.75468
1066.58255	0.74879
1064.65383	0.74514
1062.72511	0.74387
1060.79639	0.74502
1058.86767	0.74867
1056.93894	0.75481
1055.01022	0.76336
1053.08150	0.77415
1051.15278	0.78660
1049.22406	0.79932
1047.29534	0.81035
1045.36662	0.81841
1043.43790	0.82400
1041.50918	0.82849
1039.58046	0.83239
1037.65174	0.83529
1035.72302	0.83698
1033.79430	0.83809
1031.86558	0.83951
1029.93685	0.84188
1028.00813	0.84538
1026.07941	0.84866
1024.15069	0.84901
1022.22197	0.84516
1020.29325	0.83850
1018.36453	0.83101
1016.43581	0.82385
1014.50709	0.81750
1012.57837	0.81221
1010.64965	0.80818
1008.72093	0.80557
1006.79221	0.80440
1004.86349	0.80445
1002.93476	0.80562
1001.00604	0.80804
999.07732	0.81184
997.14860	0.81712
995.21988	0.82397
993.29116	0.83237
991.36244	0.84189
989.43372	0.85093
987.50500	0.85661
985.57628	0.85727
983.64756	0.85460
981.71884	0.85141
979.79012	0.84882
977.86140	0.84668
975.93268	0.84487
974.00395	0.84352
972.07523	0.84267
970.14651	0.84227
968.21779	0.84205
966.28907	0.84182
964.36035	0.84163
962.43163	0.84178
960.50291	0.84251
958.57419	0.84391
956.64547	0.84611
954.71675	0.84919
952.78803	0.85296
950.85931	0.85677
948.93059	0.85961
947.00186	0.86078
945.07314	0.86032
943.14442	0.85868
941.21570	0.85647
939.28698	0.85426
937.35826	0.85237
935.42954	0.85067
933.50082	0.84876
931.57210	0.84624
929.64338	0.84301
927.71466	0.83939
925.78594	0.83599
923.85722	0.83332
921.92850	0.83170
919.99977	0.83138
918.07105	0.83246
916.14233	0.83492
914.21361	0.83849
912.28489	0.84264
910.35617	0.84662
908.42745	0.84998
906.49873	0.85297
904.57001	0.85614
902.64129	0.85985
900.71257	0.86399
898.78385	0.86808
896.85513	0.87154
894.92641	0.87401
892.99768	0.87549
891.06896	0.87635
889.14024	0.87700
887.21152	0.87766
885.28280	0.87843
883.35408	0.87934
881.42536	0.88038
879.49664	0.88127
877.56792	0.88149
875.63920	0.88084
873.71048	0.87953
871.78176	0.87796
869.85304	0.87646
867.92432	0.87529
865.99560	0.87476
864.06687	0.87527
862.13815	0.87679
860.20943	0.87796
858.28071	0.87669
856.35199	0.87208
854.42327	0.86439
852.49455	0.85366
850.56583	0.84037
848.63711	0.82603
846.70839	0.81228
844.77967	0.80020
842.85095	0.79030
840.92223	0.78258
838.99351	0.77648
837.06478	0.77135
835.13606	0.76744
833.20734	0.76588
831.27862	0.76773
829.34990	0.77351
827.42118	0.78303
825.49246	0.79514
823.56374	0.80778
821.63502	0.81866
819.70630	0.82678
817.77758	0.83277
815.84886	0.83734
813.92014	0.84074
811.99142	0.84388
810.06269	0.84792
808.13397	0.85315
806.20525	0.85922
804.27653	0.86558
802.34781	0.87144
800.41909	0.87574
798.49037	0.87801
796.56165	0.87914
794.63293	0.88035
792.70421	0.88203
790.77549	0.88388
788.84677	0.88542
786.91805	0.88626
784.98933	0.88643
783.06060	0.88634
781.13188	0.88629
779.20316	0.88627
777.27444	0.88611
775.34572	0.88580
773.41700	0.88549
771.48828	0.88536
769.55956	0.88555
767.63084	0.88618
765.70212	0.88744
763.77340	0.88936
761.84468	0.89154
759.91596	0.89284
757.98724	0.89191
756.05852	0.88816
754.12979	0.88232
752.20107	0.87580
750.27235	0.86973
748.34363	0.86480
746.41491	0.86138
744.48619	0.85953
742.55747	0.85845
740.62875	0.85633
738.70003	0.85209
736.77131	0.84635
734.84259	0.84066
732.91387	0.83639
730.98515	0.83427
729.05643	0.83456
727.12770	0.83700
725.19898	0.84074
723.27026	0.84441
721.34154	0.84684
719.41282	0.84785
717.48410	0.84855
715.55538	0.85027
713.62666	0.85345
711.69794	0.85787
709.76922	0.86318
707.84050	0.86898
705.91178	0.87439
703.98306	0.87799
702.05434	0.87880
700.12561	0.87745
698.19689	0.87537
696.26817	0.87361
694.33945	0.87269
692.41073	0.87268
690.48201	0.87300
688.55329	0.87314
686.62457	0.87391
684.69585	0.87601
682.76713	0.87891
680.83841	0.88150
678.90969	0.88236
676.98097	0.88060
675.05225	0.87670
673.12352	0.87186
671.19480	0.86703
669.26608	0.86270
667.33736	0.85908
665.40864	0.85626
663.47992	0.85422
661.55120	0.85286
659.62248	0.85211
657.69376	0.85208
655.76504	0.85296
653.83632	0.85469
651.90760	0.85701
649.97888	0.86006
648.05016	0.86380
646.12144	0.86664
644.19271	0.86694
642.26399	0.86438
640.33527	0.85924
638.40655	0.85262
636.47783	0.84590
634.54911	0.83978
632.62039	0.83445
630.69167	0.83014
628.76295	0.82730
626.83423	0.82640
624.90551	0.82780
622.97679	0.83140
621.04807	0.83637
619.11935	0.84142
617.19062	0.84556
615.26190	0.84863
613.33318	0.85085
611.40446	0.85225
609.47574	0.85262
607.54702	0.85213
605.61830	0.85155
603.68958	0.85138
601.76086	0.85159
599.83214	0.85210
597.90342	0.85296
595.97470	0.85430
594.04598	0.85636
592.11726	0.85942
590.18853	0.86371
588.25981	0.86924
586.33109	0.87557
584.40237	0.88182
582.47365	0.88696
580.54493	0.89041
578.61621	0.89244
576.68749	0.89383
574.75877	0.89516
572.83005	0.89639
570.90133	0.89719
568.97261	0.89749
567.04389	0.89755
565.11517	0.89760
563.18644	0.89771
561.25772	0.89789
559.32900	0.89819
557.40028	0.89877
555.47156	0.89984
553.54284	0.90146
551.61412	0.90353
549.68540	0.90573
547.75668	0.90753
545.82796	0.90818
543.89924	0.90712
541.97052	0.90459
540.04180	0.90138
538.11308	0.89832
536.18436	0.89601
534.25563	0.89467
532.32691	0.89407
530.39819	0.89366
528.46947	0.89292
526.54075	0.89179
524.61203	0.89067
522.68331	0.89010
520.75459	0.89052
518.82587	0.89223
516.89715	0.89526
514.96843	0.89939
513.03971	0.90419
511.11099	0.90901
509.18227	0.91313
507.25354	0.91624
505.32482	0.91883
503.39610	0.92185
501.46738	0.92592
499.53866	0.93105
497.60994	0.93695
495.68122	0.94298
493.75250	0.94816
491.82378	0.95170
489.89506	0.95346
487.96634	0.95406
486.03762	0.95459
484.10890	0.95541
482.18018	0.95544
480.25145	0.95347
478.32273	0.94970
476.39401	0.94536
474.46529	0.94154
472.53657	0.93885
470.60785	0.93744
468.67913	0.93707
466.75041	0.93730
464.82169	0.93805
462.89297	0.93961
460.96425	0.94226
459.03553	0.94616
457.10681	0.95123
455.17809	0.95707
453.24936	0.96304
451.32064	0.96864
449.39192	0.97405
447.46320	0.97953
445.53448	0.98419
443.60576	0.98669
441.67704	0.98717
439.74832	0.98714
437.81960	0.98764
435.89088	0.98904
433.96216	0.99094
432.03344	0.99268
430.10472	0.99374
428.17600	0.99422
426.24728	0.99485
424.31855	0.99608
422.38983	0.99775
420.46111	0.99950
418.53239	1.00072
416.60367	1.00072
414.67495	1.00072
412.74623	1.00072
410.81751	1.00072
408.88879	1.00072
406.96007	1.00072
405.03135	1.00072
403.10263	1.00072
401.17391	1.00072
399.24519	1.00072
