3996.30929	1.00068
3994.38057	1.00068
3992.45185	1.00068
3990.52313	1.00068
3988.59441	1.00068
3986.66569	1.00068
3984.73697	1.00068
3982.80825	1.00068
3980.87953	1.00068
3978.95081	1.00068
3977.02209	1.00068
3975.09337	1.00051
3973.16465	1.00027
3971.23593	1.00001
3969.30720	0.99987
3967.37848	0.99982
3965.44976	0.99975
3963.52104	0.99965
3961.59232	0.99960
3959.66360	0.99961
3957.73488	0.99961
3955.80616	0.99960
3953.87744	0.99968
3951.94872	0.99981
3950.02000	0.99984
3948.09128	0.99980
3946.16256	0.99983
3944.23384	0.99988
3942.30511	0.99977
3940.37639	0.99952
3938.44767	0.99929
3936.51895	0.99916
3934.59023	0.99908
3932.66151	0.99905
3930.73279	0.99902
3928.80407	0.99891
3926.87535	0.99876
3924.94663	0.99877
3923.01791	0.99895
3921.08919	0.99916
3919.16047	0.99932
3917.23175	0.99937
3915.30302	0.99933
3913.37430	0.99922
3911.44558	0.99906
3909.51686	0.99885
3907.58814	0.99861
3905.65942	0.99837
3903.73070	0.99804
3901.80198	0.99769
3899.87326	0.99748
3897.94454	0.99730
3896.01582	0.99710
3894.08710	0.99692
3892.15838	0.99668
3890.22966	0.99647
3888.30094	0.99637
3886.37221	0.99639
3884.44349	0.99648
3882.51477	0.99646
3880.58605	0.99627
3878.65733	0.99588
3876.72861	0.99538
3874.79989	0.99507
3872.87117	0.99505
3870.94245	0.99505
3869.01373	0.99502
3867.08501	0.99500
3865.15629	0.99490
3863.22757	0.99475
3861.29885	0.99462
3859.37012	0.99454
3857.44140	0.99463
3855.51268	0.99475
3853.58396	0.99482
3851.65524	0.99499
3849.72652	0.99524
3847.79780	0.99548
3845.86908	0.99559
3843.94036	0.99538
3842.01164	0.99495
3840.08292	0.99441
3838.15420	0.99386
3836.22548	0.99359
3834.29676	0.99345
3832.36803	0.99310
3830.43931	0.99264
3828.51059	0.99221
3826.58187	0.99182
3824.65315	0.99140
3822.72443	0.99110
3820.79571	0.99109
3818.86699	0.99119
3816.93827	0.99128
3815.00955	0.99149
3813.08083	0.99184
3811.15211	0.99220
3809.22339	0.99243
3807.29467	0.99254
3805.36594	0.99263
3803.43722	0.99284
3801.50850	0.99314
3799.57978	0.99351
3797.65106	0.99388
3795.72234	0.99406
3793.79362	0.99404
3791.86490	0.99402
3789.93618	0.99407
3788.00746	0.99408
3786.07874	0.99401
3784.15002	0.99401
3782.22130	0.99401
3780.29258	0.99388
3778.36386	0.99368
3776.43513	0.99342
3774.50641	0.99311
3772.57769	0.99292
3770.64897	0.99289
3768.72025	0.99288
3766.79153	0.99280
3764.86281	0.99286
3762.93409	0.99298
3761.00537	0.99290
3759.07665	0.99258
3757.14793	0.99220
3755.21921	0.99186
3753.29049	0.99161
3751.36177	0.99153
3749.43304	0.99155
3747.50432	0.99166
3745.57560	0.99183
3743.64688	0.99196
3741.71816	0.99209
3739.78944	0.99224
3737.86072	0.99241
3735.93200	0.99256
3734.00328	0.99267
3732.07456	0.99267
3730.14584	0.99243
3728.21712	0.99207
3726.28840	0.99174
3724.35968	0.99130
3722.43095	0.99077
3720.50223	0.99039
3718.57351	0.99016
3716.64479	0.99001
3714.71607	0.98991
3712.78735	0.98989
3710.85863	0.98991
3708.92991	0.99005
3707.00119	0.99032
3705.07247	0.99059
3703.14375	0.99081
3701.21503	0.99087
3699.28631	0.99063
3697.35759	0.99014
3695.42886	0.98958
3693.50014	0.98892
3691.57142	0.98815
3689.64270	0.98741
3687.71398	0.98665
3685.78526	0.98586
3683.85654	0.98512
3681.92782	0.98441
3679.99910	0.98368
3678.07038	0.98293
3676.14166	0.98220
3674.21294	0.98143
3672.28422	0.98074
3670.35550	0.98035
3668.42678	0.98018
3666.49805	0.97994
3664.56933	0.97951
3662.64061	0.97893
3660.71189	0.97831
3658.78317	0.97775
3656.85445	0.97719
3654.92573	0.97651
3652.99701	0.97580
3651.06829	0.97510
3649.13957	0.97440
3647.21085	0.97372
3645.28213	0.97302
3643.35341	0.97229
3641.42469	0.97157
3639.49596	0.97090
3637.56724	0.97024
3635.63852	0.96951
3633.70980	0.96882
3631.78108	0.96823
3629.85236	0.96762
3627.92364	0.96690
3625.99492	0.96605
3624.06620	0.96510
3622.13748	0.96406
3620.20876	0.96293
3618.28004	0.96173
3616.35132	0.96052
3614.42260	0.95936
3612.49387	0.95830
3610.56515	0.95734
3608.63643	0.95636
3606.70771	0.95530
3604.77899	0.95426
3602.85027	0.95328
3600.92155	0.95234
3598.99283	0.95132
3597.06411	0.95020
3595.13539	0.94905
3593.20667	0.94791
3591.27795	0.94680
3589.34923	0.94568
3587.42051	0.94449
3585.49178	0.94319
3583.56306	0.94183
3581.63434	0.94047
3579.70562	0.93922
3577.77690	0.93809
3575.84818	0.93699
3573.91946	0.93583
3571.99074	0.93468
3570.06202	0.93360
3568.13330	0.93253
3566.20458	0.93144
3564.27586	0.93034
3562.34714	0.92922
3560.41842	0.92810
3558.48970	0.92705
3556.56097	0.92608
3554.63225	0.92510
3552.70353	0.92404
3550.77481	0.92295
3548.84609	0.92189
3546.91737	0.92088
3544.98865	0.91995
3543.05993	0.91917
3541.13121	0.91848
3539.20249	0.91780
3537.27377	0.91707
3535.34505	0.91629
3533.41633	0.91546
3531.48761	0.91458
3529.55888	0.91364
3527.63016	0.91261
3525.70144	0.91154
3523.77272	0.91052
3521.84400	0.90959
3519.91528	0.90866
3517.98656	0.90772
3516.05784	0.90676
3514.12912	0.90581
3512.20040	0.90494
3510.27168	0.90418
3508.34296	0.90352
3506.41424	0.90288
3504.48552	0.90226
3502.55679	0.90162
3500.62807	0.90095
3498.69935	0.90026
3496.77063	0.89950
3494.84191	0.89870
3492.91319	0.89792
3490.98447	0.89714
3489.05575	0.89633
3487.12703	0.89553
3485.19831	0.89480
3483.26959	0.89414
3481.34087	0.89357
3479.41215	0.89309
3477.48343	0.89271
3475.55470	0.89236
3473.62598	0.89201
3471.69726	0.89161
3469.76854	0.89119
3467.83982	0.89076
3465.91110	0.89031
3463.98238	0.88984
3462.05366	0.88941
3460.12494	0.88906
3458.19622	0.88876
3456.26750	0.88854
3454.33878	0.88839
3452.41006	0.88826
3450.48134	0.88809
3448.55262	0.88790
3446.62389	0.88774
3444.69517	0.88766
3442.76645	0.88764
3440.83773	0.88765
3438.90901	0.88766
3436.98029	0.88765
3435.05157	0.88757
3433.12285	0.88741
3431.19413	0.88721
3429.26541	0.88692
3427.33669	0.88652
3425.40797	0.88608
3423.47925	0.88570
3421.55053	0.88538
3419.62180	0.88515
3417.69308	0.88504
3415.76436	0.88499
3413.83564	0.88497
3411.90692	0.88500
3409.97820	0.88519
3408.04948	0.88562
3406.12076	0.88628
3404.19204	0.88710
3402.26332	0.88808
3400.33460	0.88922
3398.40588	0.89044
3396.47716	0.89166
3394.54844	0.89285
3392.61971	0.89400
3390.69099	0.89504
3388.76227	0.89595
3386.83355	0.89682
3384.90483	0.89771
3382.97611	0.89863
3381.04739	0.89956
3379.11867	0.90047
3377.18995	0.90134
3375.26123	0.90219
3373.33251	0.90309
3371.40379	0.90409
3369.47507	0.90520
3367.54635	0.90632
3365.61762	0.90743
3363.68890	0.90858
3361.76018	0.90974
3359.83146	0.91083
3357.90274	0.91181
3355.97402	0.91275
3354.04530	0.91364
3352.11658	0.91445
3350.18786	0.91519
3348.25914	0.91595
3346.33042	0.91670
3344.40170	0.91742
3342.47298	0.91813
3340.54426	0.91882
3338.61553	0.91948
3336.68681	0.92011
3334.75809	0.92067
3332.82937	0.92107
3330.90065	0.92119
3328.97193	0.92095
3327.04321	0.92035
3325.11449	0.91930
3323.18577	0.91758
3321.25705	0.91473
3319.32833	0.90983
3317.39961	0.90148
3315.47089	0.88818
3313.54217	0.86896
3311.61345	0.84366
3309.68472	0.81279
3307.75600	0.77754
3305.82728	0.73973
3303.89856	0.70162
3301.96984	0.66548
3300.04112	0.63339
3298.11240	0.60705
3296.18368	0.58771
3294.25496	0.57618
3292.32624	0.57294
3290.39752	0.57812
3288.46880	0.59141
3286.54008	0.61193
3284.61136	0.63823
3282.68263	0.66821
3280.75391	0.69935
3278.82519	0.72918
3276.89647	0.75582
3274.96775	0.77829
3273.03903	0.79628
3271.11031	0.80999
3269.18159	0.82003
3267.25287	0.82730
3265.32415	0.83271
3263.39543	0.83690
3261.46671	0.84026
3259.53799	0.84303
3257.60927	0.84536
3255.68054	0.84727
3253.75182	0.84883
3251.82310	0.85011
3249.89438	0.85113
3247.96566	0.85192
3246.03694	0.85251
3244.10822	0.85297
3242.17950	0.85326
3240.25078	0.85335
3238.32206	0.85327
3236.39334	0.85315
3234.46462	0.85302
3232.53590	0.85295
3230.60718	0.85294
3228.67845	0.85302
3226.74973	0.85322
3224.82101	0.85354
3222.89229	0.85397
3220.96357	0.85449
3219.03485	0.85505
3217.10613	0.85562
3215.17741	0.85617
3213.24869	0.85669
3211.31997	0.85714
3209.39125	0.85754
3207.46253	0.85784
3205.53381	0.85795
3203.60509	0.85780
3201.67637	0.85748
3199.74764	0.85706
3197.81892	0.85658
3195.89020	0.85603
3193.96148	0.85548
3192.03276	0.85493
3190.10404	0.85438
3188.17532	0.85390
3186.24660	0.85351
3184.31788	0.85314
3182.38916	0.85271
3180.46044	0.85224
3178.53172	0.85178
3176.60300	0.85130
3174.67428	0.85076
3172.74555	0.85012
3170.81683	0.84930
3168.88811	0.84823
3166.95939	0.84686
3165.03067	0.84518
3163.10195	0.84321
3161.17323	0.84098
3159.24451	0.83856
3157.31579	0.83609
3155.38707	0.83370
3153.45835	0.83148
3151.52963	0.82947
3149.60091	0.82777
3147.67219	0.82640
3145.74346	0.82530
3143.81474	0.82448
3141.88602	0.82401
3139.95730	0.82391
3138.02858	0.82413
3136.09986	0.82460
3134.17114	0.82522
3132.24242	0.82586
3130.31370	0.82647
3128.38498	0.82699
3126.45626	0.82739
3124.52754	0.82774
3122.59882	0.82813
3120.67010	0.82861
3118.74137	0.82919
3116.81265	0.82980
3114.88393	0.83031
3112.95521	0.83058
3111.02649	0.83056
3109.09777	0.83029
3107.16905	0.82982
3105.24033	0.82925
3103.31161	0.82869
3101.38289	0.82830
3099.45417	0.82810
3097.52545	0.82806
3095.59673	0.82803
3093.66801	0.82775
3091.73929	0.82693
3089.81056	0.82533
3087.88184	0.82299
3085.95312	0.82013
3084.02440	0.81688
3082.09568	0.81320
3080.16696	0.80896
3078.23824	0.80421
3076.30952	0.79921
3074.38080	0.79434
3072.45208	0.78996
3070.52336	0.78635
3068.59464	0.78357
3066.66592	0.78157
3064.73720	0.78020
3062.80847	0.77934
3060.87975	0.77884
3058.95103	0.77858
3057.02231	0.77844
3055.09359	0.77828
3053.16487	0.77810
3051.23615	0.77802
3049.30743	0.77821
3047.37871	0.77874
3045.44999	0.77954
3043.52127	0.78056
3041.59255	0.78186
3039.66383	0.78363
3037.73511	0.78606
3035.80638	0.78912
3033.87766	0.79264
3031.94894	0.79633
3030.02022	0.79993
3028.09150	0.80319
3026.16278	0.80596
3024.23406	0.80822
3022.30534	0.81005
3020.37662	0.81161
3018.44790	0.81300
3016.51918	0.81430
3014.59046	0.81560
3012.66174	0.81689
3010.73302	0.81813
3008.80429	0.81933
3006.87557	0.82057
3004.94685	0.82190
3003.01813	0.82327
3001.08941	0.82467
2999.16069	0.82612
2997.23197	0.82762
2995.30325	0.82914
2993.37453	0.83069
2991.44581	0.83226
2989.51709	0.83369
2987.58837	0.83474
2985.65965	0.83527
2983.73093	0.83525
2981.80221	0.83474
2979.87348	0.83377
2977.94476	0.83237
2976.01604	0.83062
2974.08732	0.82856
2972.15860	0.82628
2970.22988	0.82391
2968.30116	0.82164
2966.37244	0.81963
2964.44372	0.81804
2962.51500	0.81699
2960.58628	0.81657
2958.65756	0.81682
2956.72884	0.81771
2954.80012	0.81914
2952.87139	0.82098
2950.94267	0.82301
2949.01395	0.82508
2947.08523	0.82713
2945.15651	0.82914
2943.22779	0.83106
2941.29907	0.83278
2939.37035	0.83425
2937.44163	0.83542
2935.51291	0.83627
2933.58419	0.83681
2931.65547	0.83710
2929.72675	0.83722
2927.79803	0.83721
2925.86930	0.83713
2923.94058	0.83695
2922.01186	0.83673
2920.08314	0.83648
2918.15442	0.83623
2916.22570	0.83601
2914.29698	0.83585
2912.36826	0.83574
2910.43954	0.83567
2908.51082	0.83561
2906.58210	0.83556
2904.65338	0.83554
2902.72466	0.83557
2900.79594	0.83571
2898.86721	0.83595
2896.93849	0.83622
2895.00977	0.83647
2893.08105	0.83672
2891.15233	0.83693
2889.22361	0.83709
2887.29489	0.83714
2885.36617	0.83700
2883.43745	0.83664
2881.50873	0.83612
2879.58001	0.83549
2877.65129	0.83476
2875.72257	0.83393
2873.79385	0.83304
2871.86513	0.83210
2869.93640	0.83122
2868.00768	0.83054
2866.07896	0.83018
2864.15024	0.83020
2862.22152	0.83067
2860.29280	0.83153
2858.36408	0.83272
2856.43536	0.83420
2854.50664	0.83596
2852.57792	0.83792
2850.64920	0.83994
2848.72048	0.84187
2846.79176	0.84361
2844.86304	0.84510
2842.93431	0.84635
2841.00559	0.84734
2839.07687	0.84805
2837.14815	0.84852
2835.21943	0.84880
2833.29071	0.84895
2831.36199	0.84905
2829.43327	0.84914
2827.50455	0.84922
2825.57583	0.84933
2823.64711	0.84950
2821.71839	0.84973
2819.78967	0.84997
2817.86095	0.85017
2815.93222	0.85029
2814.00350	0.85030
2812.07478	0.85018
2810.14606	0.84997
2808.21734	0.84972
2806.28862	0.84948
2804.35990	0.84931
2802.43118	0.84930
2800.50246	0.84948
2798.57374	0.84987
2796.64502	0.85048
2794.71630	0.85129
2792.78758	0.85232
2790.85886	0.85356
2788.93013	0.85498
2787.00141	0.85653
2785.07269	0.85812
2783.14397	0.85968
2781.21525	0.86117
2779.28653	0.86251
2777.35781	0.86367
2775.42909	0.86466
2773.50037	0.86548
2771.57165	0.86615
2769.64293	0.86666
2767.71421	0.86699
2765.78549	0.86712
2763.85677	0.86707
2761.92805	0.86690
2759.99932	0.86662
2758.07060	0.86624
2756.14188	0.86582
2754.21316	0.86546
2752.28444	0.86516
2750.35572	0.86493
2748.42700	0.86476
2746.49828	0.86473
2744.56956	0.86483
2742.64084	0.86502
2740.71212	0.86528
2738.78340	0.86564
2736.85468	0.86607
2734.92596	0.86654
2732.99723	0.86702
2731.06851	0.86746
2729.13979	0.86788
2727.21107	0.86829
2725.28235	0.86863
2723.35363	0.86881
2721.42491	0.86877
2719.49619	0.86848
2717.56747	0.86799
2715.63875	0.86737
2713.71003	0.86671
2711.78131	0.86609
2709.85259	0.86557
2707.92387	0.86515
2705.99514	0.86483
2704.06642	0.86465
2702.13770	0.86468
2700.20898	0.86495
2698.28026	0.86540
2696.35154	0.86601
2694.42282	0.86677
2692.49410	0.86773
2690.56538	0.86886
2688.63666	0.87007
2686.70794	0.87124
2684.77922	0.87230
2682.85050	0.87322
2680.92178	0.87399
2678.99305	0.87462
2677.06433	0.87515
2675.13561	0.87562
2673.20689	0.87603
2671.27817	0.87639
2669.34945	0.87672
2667.42073	0.87709
2665.49201	0.87750
2663.56329	0.87792
2661.63457	0.87828
2659.70585	0.87859
2657.77713	0.87881
2655.84841	0.87895
2653.91969	0.87900
2651.99097	0.87902
2650.06224	0.87908
2648.13352	0.87920
2646.20480	0.87934
2644.27608	0.87946
2642.34736	0.87958
2640.41864	0.87969
2638.48992	0.87985
2636.56120	0.88010
2634.63248	0.88046
2632.70376	0.88095
2630.77504	0.88159
2628.84632	0.88239
2626.91760	0.88325
2624.98888	0.88412
2623.06015	0.88495
2621.13143	0.88572
2619.20271	0.88637
2617.27399	0.88684
2615.34527	0.88710
2613.41655	0.88717
2611.48783	0.88711
2609.55911	0.88689
2607.63039	0.88652
2605.70167	0.88606
2603.77295	0.88559
2601.84423	0.88515
2599.91551	0.88478
2597.98679	0.88448
2596.05806	0.88426
2594.12934	0.88415
2592.20062	0.88416
2590.27190	0.88428
2588.34318	0.88445
2586.41446	0.88468
2584.48574	0.88493
2582.55702	0.88519
2580.62830	0.88541
2578.69958	0.88555
2576.77086	0.88556
2574.84214	0.88538
2572.91342	0.88502
2570.98470	0.88447
2569.05597	0.88381
2567.12725	0.88315
2565.19853	0.88252
2563.26981	0.88191
2561.34109	0.88136
2559.41237	0.88091
2557.48365	0.88060
2555.55493	0.88044
2553.62621	0.88040
2551.69749	0.88049
2549.76877	0.88075
2547.84005	0.88116
2545.91133	0.88173
2543.98261	0.88243
2542.05389	0.88326
2540.12516	0.88415
2538.19644	0.88505
2536.26772	0.88585
2534.33900	0.88651
2532.41028	0.88704
2530.48156	0.88748
2528.55284	0.88784
2526.62412	0.88813
2524.69540	0.88836
2522.76668	0.88858
2520.83796	0.88879
2518.90924	0.88900
2516.98052	0.88923
2515.05180	0.88945
2513.12307	0.88966
2511.19435	0.88992
2509.26563	0.89028
2507.33691	0.89080
2505.40819	0.89146
2503.47947	0.89225
2501.55075	0.89314
2499.62203	0.89408
2497.69331	0.89500
2495.76459	0.89589
2493.83587	0.89675
2491.90715	0.89756
2489.97843	0.89833
2488.04971	0.89903
2486.12098	0.89967
2484.19226	0.90025
2482.26354	0.90076
2480.33482	0.90123
2478.40610	0.90164
2476.47738	0.90193
2474.54866	0.90217
2472.61994	0.90243
2470.69122	0.90277
2468.76250	0.90315
2466.83378	0.90352
2464.90506	0.90387
2462.97634	0.90421
2461.04762	0.90458
2459.11889	0.90499
2457.19017	0.90546
2455.26145	0.90595
2453.33273	0.90645
2451.40401	0.90696
2449.47529	0.90747
2447.54657	0.90799
2445.61785	0.90850
2443.68913	0.90896
2441.76041	0.90935
2439.83169	0.90968
2437.90297	0.90996
2435.97425	0.91017
2434.04553	0.91026
2432.11681	0.91021
2430.18808	0.90999
2428.25936	0.90966
2426.33064	0.90925
2424.40192	0.90881
2422.47320	0.90838
2420.54448	0.90799
2418.61576	0.90766
2416.68704	0.90741
2414.75832	0.90727
2412.82960	0.90726
2410.90088	0.90738
2408.97216	0.90762
2407.04344	0.90792
2405.11472	0.90821
2403.18599	0.90850
2401.25727	0.90883
2399.32855	0.90920
2397.39983	0.90960
2395.47111	0.90997
2393.54239	0.91030
2391.61367	0.91057
2389.68495	0.91079
2387.75623	0.91100
2385.82751	0.91129
2383.89879	0.91185
2381.97007	0.91291
2380.04135	0.91465
2378.11263	0.91702
2376.18390	0.91994
2374.25518	0.92329
2372.32646	0.92683
2370.39774	0.93021
2368.46902	0.93297
2366.54030	0.93474
2364.61158	0.93564
2362.68286	0.93620
2360.75414	0.93678
2358.82542	0.93732
2356.89670	0.93757
2354.96798	0.93736
2353.03926	0.93677
2351.11054	0.93602
2349.18181	0.93537
2347.25309	0.93500
2345.32437	0.93496
2343.39565	0.93526
2341.46693	0.93585
2339.53821	0.93659
2337.60949	0.93742
2335.68077	0.93812
2333.75205	0.93837
2331.82333	0.93800
2329.89461	0.93694
2327.96589	0.93549
2326.03717	0.93416
2324.10845	0.93327
2322.17973	0.93266
2320.25100	0.93201
2318.32228	0.93120
2316.39356	0.93032
2314.46484	0.92956
2312.53612	0.92903
2310.60740	0.92875
2308.67868	0.92859
2306.74996	0.92846
2304.82124	0.92835
2302.89252	0.92836
2300.96380	0.92854
2299.03508	0.92887
2297.10636	0.92931
2295.17764	0.92988
2293.24891	0.93063
2291.32019	0.93160
2289.39147	0.93271
2287.46275	0.93380
2285.53403	0.93478
2283.60531	0.93560
2281.67659	0.93629
2279.74787	0.93683
2277.81915	0.93726
2275.89043	0.93765
2273.96171	0.93808
2272.03299	0.93860
2270.10427	0.93925
2268.17555	0.94006
2266.24682	0.94093
2264.31810	0.94196
2262.38938	0.94325
2260.46066	0.94493
2258.53194	0.94718
2256.60322	0.95018
2254.67450	0.95409
2252.74578	0.95924
2250.81706	0.96603
2248.88834	0.97395
2246.95962	0.97963
2245.03090	0.97664
2243.10218	0.95910
2241.17346	0.92571
2239.24473	0.88035
2237.31601	0.82902
2235.38729	0.77709
2233.45857	0.72838
2231.52985	0.68542
2229.60113	0.64991
2227.67241	0.62300
2225.74369	0.60570
2223.81497	0.59871
2221.88625	0.60242
2219.95753	0.61692
2218.02881	0.64189
2216.10009	0.67642
2214.17137	0.71877
2212.24265	0.76582
2210.31392	0.81218
2208.38520	0.85085
2206.45648	0.87642
2204.52776	0.88863
2202.59904	0.89205
2200.67032	0.89226
2198.74160	0.89256
2196.81288	0.89384
2194.88416	0.89582
2192.95544	0.89797
2191.02672	0.89988
2189.09800	0.90142
2187.16928	0.90265
2185.24056	0.90368
2183.31183	0.90453
2181.38311	0.90524
2179.45439	0.90583
2177.52567	0.90636
2175.59695	0.90693
2173.66823	0.90762
2171.73951	0.90843
2169.81079	0.90937
2167.88207	0.91048
2165.95335	0.91175
2164.02463	0.91316
2162.09591	0.91472
2160.16719	0.91639
2158.23847	0.91803
2156.30974	0.91944
2154.38102	0.92045
2152.45230	0.92110
2150.52358	0.92157
2148.59486	0.92202
2146.66614	0.92249
2144.73742	0.92294
2142.80870	0.92336
2140.87998	0.92379
2138.95126	0.92426
2137.02254	0.92470
2135.09382	0.92506
2133.16510	0.92531
2131.23638	0.92546
2129.30765	0.92555
2127.37893	0.92557
2125.45021	0.92556
2123.52149	0.92553
2121.59277	0.92550
2119.66405	0.92548
2117.73533	0.92549
2115.80661	0.92556
2113.87789	0.92565
2111.94917	0.92575
2110.02045	0.92579
2108.09173	0.92570
2106.16301	0.92551
2104.23429	0.92532
2102.30557	0.92519
2100.37684	0.92511
2098.44812	0.92502
2096.51940	0.92488
2094.59068	0.92472
2092.66196	0.92456
2090.73324	0.92442
2088.80452	0.92434
2086.87580	0.92434
2084.94708	0.92443
2083.01836	0.92464
2081.08964	0.92499
2079.16092	0.92544
2077.23220	0.92591
2075.30348	0.92638
2073.37475	0.92683
2071.44603	0.92724
2069.51731	0.92763
2067.58859	0.92806
2065.65987	0.92856
2063.73115	0.92909
2061.80243	0.92959
2059.87371	0.93002
2057.94499	0.93034
2056.01627	0.93056
2054.08755	0.93071
2052.15883	0.93083
2050.23011	0.93096
2048.30139	0.93111
2046.37266	0.93126
2044.44394	0.93141
2042.51522	0.93152
2040.58650	0.93158
2038.65778	0.93160
2036.72906	0.93159
2034.80034	0.93155
2032.87162	0.93148
2030.94290	0.93141
2029.01418	0.93136
2027.08546	0.93132
2025.15674	0.93129
2023.22802	0.93126
2021.29930	0.93121
2019.37057	0.93115
2017.44185	0.93112
2015.51313	0.93117
2013.58441	0.93132
2011.65569	0.93159
2009.72697	0.93198
2007.79825	0.93244
2005.86953	0.93293
2003.94081	0.93342
2002.01209	0.93392
2000.08337	0.93439
1998.15465	0.93483
1996.22593	0.93525
1994.29721	0.93568
1992.36849	0.93608
1990.43976	0.93643
1988.51104	0.93674
1986.58232	0.93701
1984.65360	0.93723
1982.72488	0.93738
1980.79616	0.93749
1978.86744	0.93758
1976.93872	0.93769
1975.01000	0.93783
1973.08128	0.93800
1971.15256	0.93820
1969.22384	0.93844
1967.29512	0.93873
1965.36640	0.93909
1963.43767	0.93950
1961.50895	0.93992
1959.58023	0.94036
1957.65151	0.94082
1955.72279	0.94124
1953.79407	0.94158
1951.86535	0.94179
1949.93663	0.94187
1948.00791	0.94179
1946.07919	0.94151
1944.15047	0.94104
1942.22175	0.94038
1940.29303	0.93959
1938.36431	0.93877
1936.43558	0.93793
1934.50686	0.93708
1932.57814	0.93628
1930.64942	0.93561
1928.72070	0.93512
1926.79198	0.93483
1924.86326	0.93478
1922.93454	0.93500
1921.00582	0.93545
1919.07710	0.93592
1917.14838	0.93609
1915.21966	0.93577
1913.29094	0.93499
1911.36222	0.93388
1909.43349	0.93256
1907.50477	0.93111
1905.57605	0.92965
1903.64733	0.92833
1901.71861	0.92728
1899.78989	0.92658
1897.86117	0.92621
1895.93245	0.92615
1894.00373	0.92644
1892.07501	0.92715
1890.14629	0.92832
1888.21757	0.92994
1886.28885	0.93191
1884.36013	0.93405
1882.43141	0.93612
1880.50268	0.93774
1878.57396	0.93864
1876.64524	0.93874
1874.71652	0.93807
1872.78780	0.93675
1870.85908	0.93490
1868.93036	0.93271
1867.00164	0.93045
1865.07292	0.92838
1863.14420	0.92660
1861.21548	0.92511
1859.28676	0.92399
1857.35804	0.92335
1855.42932	0.92320
1853.50059	0.92358
1851.57187	0.92452
1849.64315	0.92596
1847.71443	0.92771
1845.78571	0.92973
1843.85699	0.93186
1841.92827	0.93387
1839.99955	0.93558
1838.07083	0.93691
1836.14211	0.93784
1834.21339	0.93848
1832.28467	0.93897
1830.35595	0.93946
1828.42723	0.94003
1826.49850	0.94072
1824.56978	0.94148
1822.64106	0.94230
1820.71234	0.94324
1818.78362	0.94417
1816.85490	0.94499
1814.92618	0.94568
1812.99746	0.94632
1811.06874	0.94682
1809.14002	0.94706
1807.21130	0.94719
1805.28258	0.94733
1803.35386	0.94745
1801.42514	0.94753
1799.49641	0.94751
1797.56769	0.94730
1795.63897	0.94692
1793.71025	0.94655
1791.78153	0.94626
1789.85281	0.94602
1787.92409	0.94590
1785.99537	0.94590
1784.06665	0.94601
1782.13793	0.94620
1780.20921	0.94637
1778.28049	0.94652
1776.35177	0.94674
1774.42305	0.94704
1772.49433	0.94742
1770.56560	0.94799
1768.63688	0.94877
1766.70816	0.94975
1764.77944	0.95081
1762.85072	0.95190
1760.92200	0.95298
1758.99328	0.95401
1757.06456	0.95502
1755.13584	0.95622
1753.20712	0.95755
1751.27840	0.95872
1749.34968	0.95974
1747.42096	0.96067
1745.49224	0.96155
1743.56351	0.96237
1741.63479	0.96307
1739.70607	0.96374
1737.77735	0.96458
1735.84863	0.96551
1733.91991	0.96647
1731.99119	0.96746
1730.06247	0.96839
1728.13375	0.96933
1726.20503	0.97028
1724.27631	0.97119
1722.34759	0.97209
1720.41887	0.97309
1718.49015	0.97407
1716.56142	0.97505
1714.63270	0.97593
1712.70398	0.97646
1710.77526	0.97686
1708.84654	0.97727
1706.91782	0.97771
1704.98910	0.97833
1703.06038	0.97907
1701.13166	0.97975
1699.20294	0.98031
1697.27422	0.98068
1695.34550	0.98085
1693.41678	0.98083
1691.48806	0.98057
1689.55933	0.98011
1687.63061	0.97934
1685.70189	0.97818
1683.77317	0.97680
1681.84445	0.97526
1679.91573	0.97341
1677.98701	0.97137
1676.05829	0.96934
1674.12957	0.96758
1672.20085	0.96627
1670.27213	0.96520
1668.34341	0.96444
1666.41469	0.96413
1664.48597	0.96396
1662.55725	0.96380
1660.62852	0.96388
1658.69980	0.96433
1656.77108	0.96523
1654.84236	0.96657
1652.91364	0.96825
1650.98492	0.97020
1649.05620	0.97244
1647.12748	0.97509
1645.19876	0.97840
1643.27004	0.98217
1641.34132	0.98484
1639.41260	0.98323
1637.48388	0.97389
1635.55516	0.95440
1633.62643	0.92468
1631.69771	0.88752
1629.76899	0.84722
1627.84027	0.80692
1625.91155	0.76802
1623.98283	0.73150
1622.05411	0.69860
1620.12539	0.67043
1618.19667	0.64754
1616.26795	0.62992
1614.33923	0.61711
1612.41051	0.60830
1610.48179	0.60246
1608.55307	0.59884
1606.62434	0.59728
1604.69562	0.59756
1602.76690	0.59852
1600.83818	0.59901
1598.90946	0.59960
1596.98074	0.60275
1595.05202	0.61071
1593.12330	0.62301
1591.19458	0.63682
1589.26586	0.64866
1587.33714	0.65571
1585.40842	0.65713
1583.47970	0.65370
1581.55098	0.64654
1579.62225	0.63634
1577.69353	0.62352
1575.76481	0.60886
1573.83609	0.59354
1571.90737	0.57925
1569.97865	0.56846
1568.04993	0.56372
1566.12121	0.56668
1564.19249	0.57766
1562.26377	0.59559
1560.33505	0.61798
1558.40633	0.64056
1556.47761	0.65768
1554.54889	0.66461
1552.62017	0.66000
1550.69144	0.64563
1548.76272	0.62494
1546.83400	0.60183
1544.90528	0.58009
1542.97656	0.56281
1541.04784	0.55196
1539.11912	0.54841
1537.19040	0.55244
1535.26168	0.56363
1533.33296	0.58140
1531.40424	0.60569
1529.47552	0.63586
1527.54680	0.66839
1525.61808	0.69529
1523.68935	0.70789
1521.76063	0.70130
1519.83191	0.67476
1517.90319	0.63153
1515.97447	0.57731
1514.04575	0.51795
1512.11703	0.45888
1510.18831	0.40512
1508.25959	0.36064
1506.33087	0.32746
1504.40215	0.30512
1502.47343	0.29154
1500.54471	0.28468
1498.61599	0.28418
1496.68726	0.29125
1494.75854	0.30719
1492.82982	0.33182
1490.90110	0.36213
1488.97238	0.39231
1487.04366	0.41619
1485.11494	0.43182
1483.18622	0.44142
1481.25750	0.44826
1479.32878	0.45574
1477.40006	0.46624
1475.47134	0.48040
1473.54262	0.49801
1471.61390	0.51870
1469.68517	0.54084
1467.75645	0.56086
1465.82773	0.57450
1463.89901	0.57914
1461.97029	0.57480
1460.04157	0.56331
1458.11285	0.54678
1456.18413	0.52675
1454.25541	0.50481
1452.32669	0.48306
1450.39797	0.46368
1448.46925	0.44836
1446.54053	0.43841
1444.61181	0.43481
1442.68309	0.43802
1440.75436	0.44799
1438.82564	0.46414
1436.89692	0.48559
1434.96820	0.51159
1433.03948	0.54148
1431.11076	0.57443
1429.18204	0.60938
1427.25332	0.64400
1425.32460	0.67405
1423.39588	0.69529
1421.46716	0.70625
1419.53844	0.70844
1417.60972	0.70446
1415.68100	0.69663
1413.75227	0.68667
1411.82355	0.67574
1409.89483	0.66497
1407.96611	0.65538
1406.03739	0.64762
1404.10867	0.64218
1402.17995	0.63975
1400.25123	0.64127
1398.32251	0.64785
1396.39379	0.66036
1394.46507	0.67901
1392.53635	0.70315
1390.60763	0.73068
1388.67891	0.75757
1386.75018	0.77965
1384.82146	0.79555
1382.89274	0.80715
1380.96402	0.81682
1379.03530	0.82555
1377.10658	0.83339
1375.17786	0.84044
1373.24914	0.84711
1371.32042	0.85376
1369.39170	0.85965
1367.46298	0.86272
1365.53426	0.86119
1363.60554	0.85504
1361.67682	0.84579
1359.74809	0.83526
1357.81937	0.82482
1355.89065	0.81534
1353.96193	0.80741
1352.03321	0.80152
1350.10449	0.79810
1348.17577	0.79748
1346.24705	0.79996
1344.31833	0.80573
1342.38961	0.81480
1340.46089	0.82703
1338.53217	0.84215
1336.60345	0.85970
1334.67473	0.87876
1332.74601	0.89723
1330.81728	0.91161
1328.88856	0.91848
1326.95984	0.91643
1325.03112	0.90636
1323.10240	0.88979
1321.17368	0.86733
1319.24496	0.83847
1317.31624	0.80269
1315.38752	0.76027
1313.45880	0.71263
1311.53008	0.66239
1309.60136	0.61314
1307.67264	0.56874
1305.74392	0.53299
1303.81519	0.50901
1301.88647	0.49752
1299.95775	0.49541
1298.02903	0.49688
1296.10031	0.49636
1294.17159	0.49016
1292.24287	0.47745
1290.31415	0.46032
1288.38543	0.44204
1286.45671	0.42524
1284.52799	0.41132
1282.59927	0.40075
1280.67055	0.39342
1278.74183	0.38778
1276.81310	0.38105
1274.88438	0.37167
1272.95566	0.36134
1271.02694	0.35416
1269.09822	0.35421
1267.16950	0.36374
1265.24078	0.38218
1263.31206	0.40571
1261.38334	0.42895
1259.45462	0.44831
1257.52590	0.46378
1255.59718	0.47810
1253.66846	0.49518
1251.73974	0.51822
1249.81101	0.54811
1247.88229	0.58367
1245.95357	0.62282
1244.02485	0.66292
1242.09613	0.69973
1240.16741	0.72700
1238.23869	0.73932
1236.30997	0.73572
1234.38125	0.71982
1232.45253	0.69687
1230.52381	0.67051
1228.59509	0.64158
1226.66637	0.60914
1224.73765	0.57245
1222.80893	0.53223
1220.88020	0.49103
1218.95148	0.45262
1217.02276	0.42075
1215.09404	0.39788
1213.16532	0.38481
1211.23660	0.38113
1209.30788	0.38603
1207.37916	0.39847
1205.45044	0.41701
1203.52172	0.43981
1201.59300	0.46527
1199.66428	0.49285
1197.73556	0.52321
1195.80684	0.55685
1193.87811	0.59220
1191.94939	0.62459
1190.02067	0.64782
1188.09195	0.65712
1186.16323	0.65123
1184.23451	0.63224
1182.30579	0.60425
1180.37707	0.57150
1178.44835	0.53709
1176.51963	0.50340
1174.59091	0.47300
1172.66219	0.44800
1170.73347	0.42878
1168.80475	0.41422
1166.87602	0.40356
1164.94730	0.39776
1163.01858	0.39877
1161.08986	0.40815
1159.16114	0.42602
1157.23242	0.45024
1155.30370	0.47634
1153.37498	0.49949
1151.44626	0.51716
1149.51754	0.52966
1147.58882	0.53885
1145.66010	0.54684
1143.73138	0.55542
1141.80266	0.56583
1139.87393	0.57916
1137.94521	0.59669
1136.01649	0.61941
1134.08777	0.64701
1132.15905	0.67731
1130.23033	0.70549
1128.30161	0.72556
1126.37289	0.73467
1124.44417	0.73460
1122.51545	0.72806
1120.58673	0.71534
1118.65801	0.69467
1116.72929	0.66473
1114.80057	0.62726
1112.87184	0.58690
1110.94312	0.54848
1109.01440	0.51537
1107.08568	0.48971
1105.15696	0.47295
1103.22824	0.46615
1101.29952	0.47008
1099.37080	0.48521
1097.44208	0.51134
1095.51336	0.54684
1093.58464	0.58741
1091.65592	0.62650
1089.72720	0.65945
1087.79848	0.68692
1085.86976	0.71179
1083.94103	0.73428
1082.01231	0.75231
1080.08359	0.76461
1078.15487	0.77191
1076.22615	0.77626
1074.29743	0.77959
1072.36871	0.78281
1070.43999	0.78618
1068.51127	0.78968
1066.58255	0.79317
1064.65383	0.79647
1062.72511	0.79953
1060.79639	0.80237
1058.86767	0.80500
1056.93894	0.80735
1055.01022	0.80936
1053.08150	0.81104
1051.15278	0.81256
1049.22406	0.81406
1047.29534	0.81565
1045.36662	0.81736
1043.43790	0.81915
1041.50918	0.82106
1039.58046	0.82315
1037.65174	0.82545
1035.72302	0.82797
1033.79430	0.83067
1031.86558	0.83329
1029.93685	0.83529
1028.00813	0.83629
1026.07941	0.83630
1024.15069	0.83559
1022.22197	0.83436
1020.29325	0.83280
1018.36453	0.83115
1016.43581	0.82962
1014.50709	0.82845
1012.57837	0.82780
1010.64965	0.82770
1008.72093	0.82820
1006.79221	0.82937
1004.86349	0.83128
1002.93476	0.83393
1001.00604	0.83725
999.07732	0.84106
997.14860	0.84509
995.21988	0.84897
993.29116	0.85219
991.36244	0.85443
989.43372	0.85582
987.50500	0.85667
985.57628	0.85714
983.64756	0.85738
981.71884	0.85754
979.79012	0.85778
977.86140	0.85818
975.93268	0.85883
974.00395	0.85964
972.07523	0.86038
970.14651	0.86083
968.21779	0.86095
966.28907	0.86093
964.36035	0.86102
962.43163	0.86132
960.50291	0.86178
958.57419	0.86236
956.64547	0.86308
954.71675	0.86394
952.78803	0.86497
950.85931	0.86620
948.93059	0.86768
947.00186	0.86946
945.07314	0.87167
943.14442	0.87440
941.21570	0.87765
939.28698	0.88126
937.35826	0.88451
935.42954	0.88592
933.50082	0.88393
931.57210	0.87786
929.64338	0.86820
927.71466	0.85628
925.78594	0.84367
923.85722	0.83164
921.92850	0.82102
919.99977	0.81237
918.07105	0.80610
916.14233	0.80256
914.21361	0.80193
912.28489	0.80425
910.35617	0.80947
908.42745	0.81757
906.49873	0.82837
904.57001	0.84139
902.64129	0.85566
900.71257	0.86969
898.78385	0.88161
896.85513	0.88993
894.92641	0.89451
892.99768	0.89642
891.06896	0.89662
889.14024	0.89509
887.21152	0.89151
885.28280	0.88629
883.35408	0.88047
881.42536	0.87500
879.49664	0.87061
877.56792	0.86774
875.63920	0.86678
873.71048	0.86818
871.78176	0.87223
869.85304	0.87831
867.92432	0.88404
865.99560	0.88561
864.06687	0.88026
862.13815	0.86856
860.20943	0.85380
858.28071	0.83973
856.35199	0.82816
854.42327	0.81753
852.49455	0.80427
850.56583	0.78666
848.63711	0.76697
846.70839	0.74960
844.77967	0.73704
842.85095	0.72746
840.92223	0.71644
838.99351	0.70095
837.06478	0.68124
835.13606	0.65976
833.20734	0.63900
831.27862	0.61975
829.34990	0.60120
827.42118	0.58303
825.49246	0.56750
823.56374	0.55867
821.63502	0.55951
819.70630	0.57001
817.77758	0.58740
815.84886	0.60807
813.92014	0.63064
811.99142	0.65668
810.06269	0.68791
808.13397	0.72325
806.20525	0.75836
804.27653	0.78764
802.34781	0.80790
800.41909	0.82016
798.49037	0.82785
796.56165	0.83416
794.63293	0.84074
792.70421	0.84777
790.77549	0.85480
788.84677	0.86145
786.91805	0.86762
784.98933	0.87326
783.06060	0.87831
781.13188	0.88273
779.20316	0.88577
777.27444	0.88538
775.34572	0.87982
773.41700	0.86965
771.48828	0.85712
769.55956	0.84431
767.63084	0.83262
765.70212	0.82289
763.77340	0.81544
761.84468	0.80987
759.91596	0.80504
757.98724	0.79992
756.05852	0.79478
754.12979	0.79088
752.20107	0.78935
750.27235	0.79051
748.34363	0.79412
746.41491	0.79971
744.48619	0.80674
742.55747	0.81435
740.62875	0.82069
738.70003	0.82411
736.77131	0.82495
734.84259	0.82546
732.91387	0.82747
730.98515	0.83115
729.05643	0.83576
727.12770	0.84049
725.19898	0.84431
723.27026	0.84609
721.34154	0.84519
719.41282	0.84225
717.48410	0.83887
715.55538	0.83620
713.62666	0.83431
711.69794	0.83291
709.76922	0.83204
707.84050	0.83204
705.91178	0.83334
703.98306	0.83643
702.05434	0.84143
700.12561	0.84763
698.19689	0.85315
696.26817	0.85626
694.33945	0.85653
692.41073	0.85454
690.48201	0.85095
688.55329	0.84640
686.62457	0.84217
684.69585	0.83922
682.76713	0.83733
680.83841	0.83632
678.90969	0.83640
676.98097	0.83771
675.05225	0.84038
673.12352	0.84473
671.19480	0.85106
669.26608	0.85946
667.33736	0.86969
665.40864	0.88106
663.47992	0.89219
661.55120	0.90135
659.62248	0.90751
657.69376	0.91111
655.76504	0.91343
653.83632	0.91526
651.90760	0.91656
649.97888	0.91748
648.05016	0.91870
646.12144	0.92010
644.19271	0.92109
642.26399	0.92186
640.33527	0.92275
638.40655	0.92379
636.47783	0.92493
634.54911	0.92622
632.62039	0.92796
630.69167	0.93091
628.76295	0.93540
626.83423	0.93945
624.90551	0.93990
622.97679	0.93614
621.04807	0.93039
619.11935	0.92390
617.19062	0.91472
615.26190	0.89996
613.33318	0.87910
611.40446	0.85457
609.47574	0.82976
607.54702	0.80718
605.61830	0.78827
603.68958	0.77372
601.76086	0.76393
599.83214	0.75902
597.90342	0.75881
595.97470	0.76310
594.04598	0.77194
592.11726	0.78512
590.18853	0.80105
588.25981	0.81692
586.33109	0.83148
584.40237	0.84621
582.47365	0.86200
580.54493	0.87681
578.61621	0.88801
576.68749	0.89509
574.75877	0.89903
572.83005	0.90040
570.90133	0.89864
568.97261	0.89271
567.04389	0.88266
565.11517	0.87015
563.18644	0.85719
561.25772	0.84483
559.32900	0.83358
557.40028	0.82405
555.47156	0.81697
553.54284	0.81315
551.61412	0.81317
549.68540	0.81678
547.75668	0.82259
545.82796	0.82905
543.89924	0.83581
541.97052	0.84351
540.04180	0.85229
538.11308	0.86071
536.18436	0.86623
534.25563	0.86687
532.32691	0.86197
530.39819	0.85226
528.46947	0.83981
526.54075	0.82705
524.61203	0.81549
522.68331	0.80614
520.75459	0.79998
518.82587	0.79770
516.89715	0.79957
514.96843	0.80551
513.03971	0.81491
511.11099	0.82634
509.18227	0.83814
507.25354	0.84994
505.32482	0.86260
503.39610	0.87669
501.46738	0.89179
499.53866	0.90725
497.60994	0.92259
495.68122	0.93644
493.75250	0.94578
491.82378	0.94763
489.89506	0.94182
487.96634	0.93115
486.03762	0.91877
484.10890	0.90647
482.18018	0.89469
480.25145	0.88371
478.32273	0.87427
476.39401	0.86714
474.46529	0.86301
472.53657	0.86243
470.60785	0.86558
468.67913	0.87233
466.75041	0.88200
464.82169	0.89298
462.89297	0.90346
460.96425	0.91257
459.03553	0.92041
457.10681	0.92676
455.17809	0.93125
453.24936	0.93463
451.32064	0.93720
449.39192	0.93658
447.46320	0.93012
445.53448	0.91820
443.60576	0.90358
441.67704	0.88912
439.74832	0.87662
437.81960	0.86642
435.89088	0.85860
433.96216	0.85367
432.03344	0.85192
430.10472	0.85317
428.17600	0.85651
426.24728	0.86071
424.31855	0.86572
422.38983	0.87312
420.46111	0.88509
418.53239	0.90235
416.60367	0.90235
414.67495	0.90235
412.74623	0.90235
410.81751	0.90235
408.88879	0.90235
406.96007	0.90235
405.03135	0.90235
403.10263	0.90235
401.17391	0.90235
399.24519	0.90235
