3996.30929	1.00023
3994.38057	1.00023
3992.45185	1.00023
3990.52313	1.00023
3988.59441	1.00023
3986.66569	1.00023
3984.73697	1.00023
3982.80825	1.00023
3980.87953	1.00023
3978.95081	1.00023
3977.02209	1.00023
3975.09337	1.00026
3973.16465	1.00024
3971.23593	1.00018
3969.30720	1.00009
3967.37848	1.00000
3965.44976	0.99992
3963.52104	0.99984
3961.59232	0.99980
3959.66360	0.99979
3957.73488	0.99981
3955.80616	0.99986
3953.87744	0.99989
3951.94872	0.99987
3950.02000	0.99982
3948.09128	0.99976
3946.16256	0.99969
3944.23384	0.99959
3942.30511	0.99949
3940.37639	0.99936
3938.44767	0.99921
3936.51895	0.99905
3934.59023	0.99890
3932.66151	0.99877
3930.73279	0.99867
3928.80407	0.99858
3926.87535	0.99848
3924.94663	0.99838
3923.01791	0.99831
3921.08919	0.99825
3919.16047	0.99817
3917.23175	0.99807
3915.30302	0.99795
3913.37430	0.99784
3911.44558	0.99774
3909.51686	0.99768
3907.58814	0.99762
3905.65942	0.99756
3903.73070	0.99752
3901.80198	0.99746
3899.87326	0.99737
3897.94454	0.99729
3896.01582	0.99725
3894.08710	0.99722
3892.15838	0.99717
3890.22966	0.99706
3888.30094	0.99690
3886.37221	0.99673
3884.44349	0.99657
3882.51477	0.99639
3880.58605	0.99616
3878.65733	0.99584
3876.72861	0.99542
3874.79989	0.99507
3872.87117	0.99499
3870.94245	0.99514
3869.01373	0.99531
3867.08501	0.99540
3865.15629	0.99538
3863.22757	0.99531
3861.29885	0.99525
3859.37012	0.99522
3857.44140	0.99519
3855.51268	0.99512
3853.58396	0.99498
3851.65524	0.99479
3849.72652	0.99461
3847.79780	0.99447
3845.86908	0.99433
3843.94036	0.99413
3842.01164	0.99386
3840.08292	0.99353
3838.15420	0.99322
3836.22548	0.99309
3834.29676	0.99315
3832.36803	0.99319
3830.43931	0.99307
3828.51059	0.99288
3826.58187	0.99276
3824.65315	0.99272
3822.72443	0.99269
3820.79571	0.99272
3818.86699	0.99284
3816.93827	0.99299
3815.00955	0.99318
3813.08083	0.99341
3811.15211	0.99365
3809.22339	0.99383
3807.29467	0.99394
3805.36594	0.99399
3803.43722	0.99403
3801.50850	0.99403
3799.57978	0.99398
3797.65106	0.99391
3795.72234	0.99384
3793.79362	0.99374
3791.86490	0.99363
3789.93618	0.99355
3788.00746	0.99351
3786.07874	0.99342
3784.15002	0.99329
3782.22130	0.99320
3780.29258	0.99314
3778.36386	0.99308
3776.43513	0.99298
3774.50641	0.99280
3772.57769	0.99256
3770.64897	0.99234
3768.72025	0.99212
3766.79153	0.99183
3764.86281	0.99150
3762.93409	0.99119
3761.00537	0.99087
3759.07665	0.99051
3757.14793	0.99014
3755.21921	0.98978
3753.29049	0.98946
3751.36177	0.98922
3749.43304	0.98908
3747.50432	0.98900
3745.57560	0.98896
3743.64688	0.98893
3741.71816	0.98888
3739.78944	0.98881
3737.86072	0.98872
3735.93200	0.98861
3734.00328	0.98856
3732.07456	0.98859
3730.14584	0.98863
3728.21712	0.98861
3726.28840	0.98853
3724.35968	0.98842
3722.43095	0.98826
3720.50223	0.98814
3718.57351	0.98814
3716.64479	0.98823
3714.71607	0.98834
3712.78735	0.98847
3710.85863	0.98859
3708.92991	0.98866
3707.00119	0.98864
3705.07247	0.98850
3703.14375	0.98827
3701.21503	0.98800
3699.28631	0.98771
3697.35759	0.98739
3695.42886	0.98710
3693.50014	0.98684
3691.57142	0.98653
3689.64270	0.98614
3687.71398	0.98572
3685.78526	0.98533
3683.85654	0.98501
3681.92782	0.98476
3679.99910	0.98453
3678.07038	0.98426
3676.14166	0.98396
3674.21294	0.98364
3672.28422	0.98329
3670.35550	0.98292
3668.42678	0.98251
3666.49805	0.98202
3664.56933	0.98149
3662.64061	0.98095
3660.71189	0.98041
3658.78317	0.97981
3656.85445	0.97916
3654.92573	0.97847
3652.99701	0.97777
3651.06829	0.97712
3649.13957	0.97653
3647.21085	0.97599
3645.28213	0.97543
3643.35341	0.97480
3641.42469	0.97415
3639.49596	0.97354
3637.56724	0.97301
3635.63852	0.97251
3633.70980	0.97193
3631.78108	0.97131
3629.85236	0.97063
3627.92364	0.96987
3625.99492	0.96902
3624.06620	0.96810
3622.13748	0.96711
3620.20876	0.96605
3618.28004	0.96496
3616.35132	0.96387
3614.42260	0.96282
3612.49387	0.96176
3610.56515	0.96067
3608.63643	0.95952
3606.70771	0.95832
3604.77899	0.95713
3602.85027	0.95599
3600.92155	0.95494
3598.99283	0.95394
3597.06411	0.95290
3595.13539	0.95182
3593.20667	0.95073
3591.27795	0.94963
3589.34923	0.94851
3587.42051	0.94734
3585.49178	0.94613
3583.56306	0.94494
3581.63434	0.94377
3579.70562	0.94262
3577.77690	0.94145
3575.84818	0.94026
3573.91946	0.93906
3571.99074	0.93787
3570.06202	0.93675
3568.13330	0.93569
3566.20458	0.93468
3564.27586	0.93365
3562.34714	0.93260
3560.41842	0.93154
3558.48970	0.93051
3556.56097	0.92956
3554.63225	0.92867
3552.70353	0.92780
3550.77481	0.92690
3548.84609	0.92597
3546.91737	0.92500
3544.98865	0.92403
3543.05993	0.92309
3541.13121	0.92216
3539.20249	0.92122
3537.27377	0.92030
3535.34505	0.91939
3533.41633	0.91846
3531.48761	0.91749
3529.55888	0.91649
3527.63016	0.91542
3525.70144	0.91429
3523.77272	0.91314
3521.84400	0.91202
3519.91528	0.91094
3517.98656	0.90988
3516.05784	0.90881
3514.12912	0.90774
3512.20040	0.90669
3510.27168	0.90567
3508.34296	0.90470
3506.41424	0.90380
3504.48552	0.90299
3502.55679	0.90226
3500.62807	0.90158
3498.69935	0.90092
3496.77063	0.90029
3494.84191	0.89966
3492.91319	0.89902
3490.98447	0.89840
3489.05575	0.89780
3487.12703	0.89723
3485.19831	0.89672
3483.26959	0.89625
3481.34087	0.89577
3479.41215	0.89526
3477.48343	0.89472
3475.55470	0.89419
3473.62598	0.89368
3471.69726	0.89322
3469.76854	0.89281
3467.83982	0.89244
3465.91110	0.89207
3463.98238	0.89169
3462.05366	0.89128
3460.12494	0.89085
3458.19622	0.89042
3456.26750	0.88998
3454.33878	0.88959
3452.41006	0.88927
3450.48134	0.88902
3448.55262	0.88881
3446.62389	0.88858
3444.69517	0.88833
3442.76645	0.88808
3440.83773	0.88783
3438.90901	0.88756
3436.98029	0.88732
3435.05157	0.88717
3433.12285	0.88709
3431.19413	0.88704
3429.26541	0.88697
3427.33669	0.88688
3425.40797	0.88675
3423.47925	0.88660
3421.55053	0.88645
3419.62180	0.88637
3417.69308	0.88642
3415.76436	0.88658
3413.83564	0.88681
3411.90692	0.88708
3409.97820	0.88740
3408.04948	0.88779
3406.12076	0.88826
3404.19204	0.88881
3402.26332	0.88939
3400.33460	0.88999
3398.40588	0.89066
3396.47716	0.89143
3394.54844	0.89225
3392.61971	0.89303
3390.69099	0.89377
3388.76227	0.89448
3386.83355	0.89518
3384.90483	0.89582
3382.97611	0.89644
3381.04739	0.89709
3379.11867	0.89781
3377.18995	0.89854
3375.26123	0.89929
3373.33251	0.90003
3371.40379	0.90078
3369.47507	0.90153
3367.54635	0.90230
3365.61762	0.90310
3363.68890	0.90392
3361.76018	0.90476
3359.83146	0.90561
3357.90274	0.90645
3355.97402	0.90725
3354.04530	0.90803
3352.11658	0.90891
3350.18786	0.91003
3348.25914	0.91135
3346.33042	0.91236
3344.40170	0.91203
3342.47298	0.90928
3340.54426	0.90372
3338.61553	0.89587
3336.68681	0.88674
3334.75809	0.87734
3332.82937	0.86844
3330.90065	0.86057
3328.97193	0.85409
3327.04321	0.84922
3325.11449	0.84608
3323.18577	0.84476
3321.25705	0.84530
3319.32833	0.84776
3317.39961	0.85210
3315.47089	0.85823
3313.54217	0.86590
3311.61345	0.87456
3309.68472	0.88331
3307.75600	0.89091
3305.82728	0.89635
3303.89856	0.89934
3301.96984	0.90057
3300.04112	0.90104
3298.11240	0.90143
3296.18368	0.90197
3294.25496	0.90266
3292.32624	0.90345
3290.39752	0.90430
3288.46880	0.90518
3286.54008	0.90607
3284.61136	0.90693
3282.68263	0.90772
3280.75391	0.90847
3278.82519	0.90917
3276.89647	0.90978
3274.96775	0.91028
3273.03903	0.91070
3271.11031	0.91105
3269.18159	0.91132
3267.25287	0.91153
3265.32415	0.91169
3263.39543	0.91179
3261.46671	0.91185
3259.53799	0.91188
3257.60927	0.91188
3255.68054	0.91189
3253.75182	0.91190
3251.82310	0.91194
3249.89438	0.91201
3247.96566	0.91210
3246.03694	0.91218
3244.10822	0.91227
3242.17950	0.91236
3240.25078	0.91245
3238.32206	0.91254
3236.39334	0.91267
3234.46462	0.91281
3232.53590	0.91292
3230.60718	0.91297
3228.67845	0.91299
3226.74973	0.91299
3224.82101	0.91296
3222.89229	0.91294
3220.96357	0.91296
3219.03485	0.91303
3217.10613	0.91310
3215.17741	0.91314
3213.24869	0.91313
3211.31997	0.91303
3209.39125	0.91288
3207.46253	0.91271
3205.53381	0.91252
3203.60509	0.91232
3201.67637	0.91213
3199.74764	0.91198
3197.81892	0.91184
3195.89020	0.91169
3193.96148	0.91156
3192.03276	0.91143
3190.10404	0.91131
3188.17532	0.91119
3186.24660	0.91109
3184.31788	0.91103
3182.38916	0.91101
3180.46044	0.91099
3178.53172	0.91098
3176.60300	0.91093
3174.67428	0.91082
3172.74555	0.91068
3170.81683	0.91055
3168.88811	0.91043
3166.95939	0.91033
3165.03067	0.91021
3163.10195	0.91007
3161.17323	0.90993
3159.24451	0.90981
3157.31579	0.90968
3155.38707	0.90951
3153.45835	0.90927
3151.52963	0.90896
3149.60091	0.90860
3147.67219	0.90821
3145.74346	0.90779
3143.81474	0.90736
3141.88602	0.90693
3139.95730	0.90648
3138.02858	0.90598
3136.09986	0.90543
3134.17114	0.90488
3132.24242	0.90437
3130.31370	0.90393
3128.38498	0.90352
3126.45626	0.90314
3124.52754	0.90280
3122.59882	0.90258
3120.67010	0.90244
3118.74137	0.90234
3116.81265	0.90224
3114.88393	0.90215
3112.95521	0.90204
3111.02649	0.90189
3109.09777	0.90169
3107.16905	0.90148
3105.24033	0.90133
3103.31161	0.90126
3101.38289	0.90128
3099.45417	0.90142
3097.52545	0.90167
3095.59673	0.90201
3093.66801	0.90245
3091.73929	0.90298
3089.81056	0.90357
3087.88184	0.90413
3085.95312	0.90456
3084.02440	0.90474
3082.09568	0.90464
3080.16696	0.90423
3078.23824	0.90354
3076.30952	0.90261
3074.38080	0.90152
3072.45208	0.90037
3070.52336	0.89924
3068.59464	0.89824
3066.66592	0.89742
3064.73720	0.89679
3062.80847	0.89637
3060.87975	0.89611
3058.95103	0.89594
3057.02231	0.89584
3055.09359	0.89583
3053.16487	0.89590
3051.23615	0.89596
3049.30743	0.89587
3047.37871	0.89559
3045.44999	0.89516
3043.52127	0.89461
3041.59255	0.89399
3039.66383	0.89335
3037.73511	0.89276
3035.80638	0.89231
3033.87766	0.89200
3031.94894	0.89182
3030.02022	0.89178
3028.09150	0.89188
3026.16278	0.89209
3024.23406	0.89237
3022.30534	0.89267
3020.37662	0.89296
3018.44790	0.89325
3016.51918	0.89353
3014.59046	0.89380
3012.66174	0.89401
3010.73302	0.89410
3008.80429	0.89411
3006.87557	0.89404
3004.94685	0.89390
3003.01813	0.89371
3001.08941	0.89350
2999.16069	0.89330
2997.23197	0.89309
2995.30325	0.89288
2993.37453	0.89270
2991.44581	0.89255
2989.51709	0.89241
2987.58837	0.89224
2985.65965	0.89200
2983.73093	0.89162
2981.80221	0.89104
2979.87348	0.89027
2977.94476	0.88934
2976.01604	0.88826
2974.08732	0.88708
2972.15860	0.88590
2970.22988	0.88487
2968.30116	0.88407
2966.37244	0.88349
2964.44372	0.88314
2962.51500	0.88300
2960.58628	0.88310
2958.65756	0.88341
2956.72884	0.88391
2954.80012	0.88452
2952.87139	0.88516
2950.94267	0.88576
2949.01395	0.88626
2947.08523	0.88654
2945.15651	0.88650
2943.22779	0.88605
2941.29907	0.88516
2939.37035	0.88382
2937.44163	0.88205
2935.51291	0.87993
2933.58419	0.87763
2931.65547	0.87531
2929.72675	0.87312
2927.79803	0.87117
2925.86930	0.86959
2923.94058	0.86846
2922.01186	0.86783
2920.08314	0.86772
2918.15442	0.86811
2916.22570	0.86898
2914.29698	0.87029
2912.36826	0.87200
2910.43954	0.87400
2908.51082	0.87614
2906.58210	0.87823
2904.65338	0.88013
2902.72466	0.88174
2900.79594	0.88302
2898.86721	0.88400
2896.93849	0.88472
2895.00977	0.88528
2893.08105	0.88578
2891.15233	0.88625
2889.22361	0.88668
2887.29489	0.88705
2885.36617	0.88734
2883.43745	0.88750
2881.50873	0.88749
2879.58001	0.88729
2877.65129	0.88689
2875.72257	0.88631
2873.79385	0.88559
2871.86513	0.88478
2869.93640	0.88389
2868.00768	0.88294
2866.07896	0.88199
2864.15024	0.88115
2862.22152	0.88057
2860.29280	0.88037
2858.36408	0.88060
2856.43536	0.88127
2854.50664	0.88235
2852.57792	0.88377
2850.64920	0.88542
2848.72048	0.88724
2846.79176	0.88915
2844.86304	0.89107
2842.93431	0.89296
2841.00559	0.89476
2839.07687	0.89642
2837.14815	0.89791
2835.21943	0.89918
2833.29071	0.90020
2831.36199	0.90093
2829.43327	0.90135
2827.50455	0.90157
2825.57583	0.90167
2823.64711	0.90174
2821.71839	0.90181
2819.78967	0.90191
2817.86095	0.90202
2815.93222	0.90212
2814.00350	0.90222
2812.07478	0.90232
2810.14606	0.90246
2808.21734	0.90268
2806.28862	0.90300
2804.35990	0.90345
2802.43118	0.90399
2800.50246	0.90456
2798.57374	0.90513
2796.64502	0.90565
2794.71630	0.90611
2792.78758	0.90651
2790.85886	0.90685
2788.93013	0.90714
2787.00141	0.90741
2785.07269	0.90766
2783.14397	0.90786
2781.21525	0.90799
2779.28653	0.90803
2777.35781	0.90799
2775.42909	0.90794
2773.50037	0.90789
2771.57165	0.90787
2769.64293	0.90793
2767.71421	0.90807
2765.78549	0.90827
2763.85677	0.90850
2761.92805	0.90871
2759.99932	0.90887
2758.07060	0.90896
2756.14188	0.90901
2754.21316	0.90902
2752.28444	0.90903
2750.35572	0.90904
2748.42700	0.90905
2746.49828	0.90904
2744.56956	0.90904
2742.64084	0.90905
2740.71212	0.90908
2738.78340	0.90911
2736.85468	0.90918
2734.92596	0.90930
2732.99723	0.90947
2731.06851	0.90970
2729.13979	0.90997
2727.21107	0.91025
2725.28235	0.91049
2723.35363	0.91067
2721.42491	0.91078
2719.49619	0.91080
2717.56747	0.91077
2715.63875	0.91074
2713.71003	0.91073
2711.78131	0.91070
2709.85259	0.91065
2707.92387	0.91062
2705.99514	0.91064
2704.06642	0.91068
2702.13770	0.91068
2700.20898	0.91066
2698.28026	0.91063
2696.35154	0.91062
2694.42282	0.91061
2692.49410	0.91062
2690.56538	0.91067
2688.63666	0.91074
2686.70794	0.91081
2684.77922	0.91088
2682.85050	0.91093
2680.92178	0.91096
2678.99305	0.91096
2677.06433	0.91096
2675.13561	0.91097
2673.20689	0.91099
2671.27817	0.91103
2669.34945	0.91110
2667.42073	0.91119
2665.49201	0.91128
2663.56329	0.91136
2661.63457	0.91145
2659.70585	0.91158
2657.77713	0.91177
2655.84841	0.91203
2653.91969	0.91236
2651.99097	0.91275
2650.06224	0.91315
2648.13352	0.91353
2646.20480	0.91389
2644.27608	0.91421
2642.34736	0.91446
2640.41864	0.91469
2638.48992	0.91492
2636.56120	0.91517
2634.63248	0.91541
2632.70376	0.91560
2630.77504	0.91575
2628.84632	0.91584
2626.91760	0.91589
2624.98888	0.91591
2623.06015	0.91593
2621.13143	0.91592
2619.20271	0.91587
2617.27399	0.91577
2615.34527	0.91560
2613.41655	0.91535
2611.48783	0.91503
2609.55911	0.91469
2607.63039	0.91436
2605.70167	0.91406
2603.77295	0.91382
2601.84423	0.91367
2599.91551	0.91359
2597.98679	0.91356
2596.05806	0.91356
2594.12934	0.91359
2592.20062	0.91369
2590.27190	0.91386
2588.34318	0.91411
2586.41446	0.91443
2584.48574	0.91480
2582.55702	0.91518
2580.62830	0.91552
2578.69958	0.91580
2576.77086	0.91601
2574.84214	0.91615
2572.91342	0.91623
2570.98470	0.91626
2569.05597	0.91621
2567.12725	0.91607
2565.19853	0.91585
2563.26981	0.91553
2561.34109	0.91510
2559.41237	0.91460
2557.48365	0.91409
2555.55493	0.91364
2553.62621	0.91332
2551.69749	0.91314
2549.76877	0.91307
2547.84005	0.91311
2545.91133	0.91322
2543.98261	0.91339
2542.05389	0.91360
2540.12516	0.91386
2538.19644	0.91417
2536.26772	0.91455
2534.33900	0.91497
2532.41028	0.91539
2530.48156	0.91580
2528.55284	0.91620
2526.62412	0.91655
2524.69540	0.91685
2522.76668	0.91712
2520.83796	0.91740
2518.90924	0.91769
2516.98052	0.91798
2515.05180	0.91825
2513.12307	0.91848
2511.19435	0.91863
2509.26563	0.91872
2507.33691	0.91879
2505.40819	0.91883
2503.47947	0.91887
2501.55075	0.91891
2499.62203	0.91898
2497.69331	0.91907
2495.76459	0.91918
2493.83587	0.91931
2491.90715	0.91945
2489.97843	0.91962
2488.04971	0.91981
2486.12098	0.92001
2484.19226	0.92022
2482.26354	0.92042
2480.33482	0.92061
2478.40610	0.92077
2476.47738	0.92092
2474.54866	0.92105
2472.61994	0.92115
2470.69122	0.92125
2468.76250	0.92135
2466.83378	0.92144
2464.90506	0.92150
2462.97634	0.92154
2461.04762	0.92161
2459.11889	0.92170
2457.19017	0.92180
2455.26145	0.92193
2453.33273	0.92210
2451.40401	0.92228
2449.47529	0.92246
2447.54657	0.92261
2445.61785	0.92273
2443.68913	0.92283
2441.76041	0.92294
2439.83169	0.92305
2437.90297	0.92315
2435.97425	0.92324
2434.04553	0.92329
2432.11681	0.92330
2430.18808	0.92327
2428.25936	0.92319
2426.33064	0.92311
2424.40192	0.92307
2422.47320	0.92305
2420.54448	0.92302
2418.61576	0.92299
2416.68704	0.92299
2414.75832	0.92301
2412.82960	0.92301
2410.90088	0.92295
2408.97216	0.92285
2407.04344	0.92274
2405.11472	0.92265
2403.18599	0.92259
2401.25727	0.92256
2399.32855	0.92252
2397.39983	0.92249
2395.47111	0.92247
2393.54239	0.92245
2391.61367	0.92237
2389.68495	0.92219
2387.75623	0.92189
2385.82751	0.92154
2383.89879	0.92123
2381.97007	0.92099
2380.04135	0.92085
2378.11263	0.92079
2376.18390	0.92081
2374.25518	0.92088
2372.32646	0.92094
2370.39774	0.92087
2368.46902	0.92060
2366.54030	0.92017
2364.61158	0.91971
2362.68286	0.91929
2360.75414	0.91892
2358.82542	0.91863
2356.89670	0.91845
2354.96798	0.91837
2353.03926	0.91832
2351.11054	0.91834
2349.18181	0.91848
2347.25309	0.91878
2345.32437	0.91920
2343.39565	0.91964
2341.46693	0.92008
2339.53821	0.92057
2337.60949	0.92108
2335.68077	0.92149
2333.75205	0.92168
2331.82333	0.92158
2329.89461	0.92131
2327.96589	0.92105
2326.03717	0.92090
2324.10845	0.92083
2322.17973	0.92080
2320.25100	0.92087
2318.32228	0.92107
2316.39356	0.92135
2314.46484	0.92169
2312.53612	0.92209
2310.60740	0.92252
2308.67868	0.92291
2306.74996	0.92323
2304.82124	0.92350
2302.89252	0.92375
2300.96380	0.92400
2299.03508	0.92422
2297.10636	0.92438
2295.17764	0.92451
2293.24891	0.92464
2291.32019	0.92480
2289.39147	0.92497
2287.46275	0.92513
2285.53403	0.92527
2283.60531	0.92539
2281.67659	0.92551
2279.74787	0.92560
2277.81915	0.92567
2275.89043	0.92575
2273.96171	0.92584
2272.03299	0.92594
2270.10427	0.92605
2268.17555	0.92622
2266.24682	0.92631
2264.31810	0.92635
2262.38938	0.92637
2260.46066	0.92642
2258.53194	0.92653
2256.60322	0.92671
2254.67450	0.92698
2252.74578	0.92746
2250.81706	0.92856
2248.88834	0.93064
2246.95962	0.93274
2245.03090	0.93197
2243.10218	0.92590
2241.17346	0.91482
2239.24473	0.90099
2237.31601	0.88665
2235.38729	0.87327
2233.45857	0.86168
2231.52985	0.85236
2229.60113	0.84550
2227.67241	0.84114
2225.74369	0.83949
2223.81497	0.84055
2221.88625	0.84433
2219.95753	0.85076
2218.02881	0.85970
2216.10009	0.87090
2214.17137	0.88396
2212.24265	0.89816
2210.31392	0.91184
2208.38520	0.92227
2206.45648	0.92731
2204.52776	0.92761
2202.59904	0.92593
2200.67032	0.92443
2198.74160	0.92368
2196.81288	0.92350
2194.88416	0.92366
2192.95544	0.92392
2191.02672	0.92415
2189.09800	0.92429
2187.16928	0.92437
2185.24056	0.92438
2183.31183	0.92435
2181.38311	0.92434
2179.45439	0.92433
2177.52567	0.92432
2175.59695	0.92432
2173.66823	0.92434
2171.73951	0.92438
2169.81079	0.92442
2167.88207	0.92446
2165.95335	0.92453
2164.02463	0.92465
2162.09591	0.92481
2160.16719	0.92503
2158.23847	0.92526
2156.30974	0.92546
2154.38102	0.92556
2152.45230	0.92555
2150.52358	0.92549
2148.59486	0.92541
2146.66614	0.92535
2144.73742	0.92531
2142.80870	0.92530
2140.87998	0.92530
2138.95126	0.92529
2137.02254	0.92525
2135.09382	0.92515
2133.16510	0.92502
2131.23638	0.92487
2129.30765	0.92469
2127.37893	0.92450
2125.45021	0.92430
2123.52149	0.92413
2121.59277	0.92399
2119.66405	0.92386
2117.73533	0.92373
2115.80661	0.92358
2113.87789	0.92343
2111.94917	0.92330
2110.02045	0.92320
2108.09173	0.92313
2106.16301	0.92311
2104.23429	0.92314
2102.30557	0.92320
2100.37684	0.92323
2098.44812	0.92320
2096.51940	0.92311
2094.59068	0.92300
2092.66196	0.92287
2090.73324	0.92273
2088.80452	0.92259
2086.87580	0.92245
2084.94708	0.92232
2083.01836	0.92218
2081.08964	0.92204
2079.16092	0.92188
2077.23220	0.92169
2075.30348	0.92149
2073.37475	0.92130
2071.44603	0.92116
2069.51731	0.92109
2067.58859	0.92109
2065.65987	0.92112
2063.73115	0.92114
2061.80243	0.92110
2059.87371	0.92102
2057.94499	0.92090
2056.01627	0.92076
2054.08755	0.92061
2052.15883	0.92044
2050.23011	0.92028
2048.30139	0.92013
2046.37266	0.92000
2044.44394	0.91991
2042.51522	0.91981
2040.58650	0.91969
2038.65778	0.91954
2036.72906	0.91941
2034.80034	0.91933
2032.87162	0.91931
2030.94290	0.91934
2029.01418	0.91940
2027.08546	0.91945
2025.15674	0.91946
2023.22802	0.91942
2021.29930	0.91933
2019.37057	0.91923
2017.44185	0.91912
2015.51313	0.91903
2013.58441	0.91895
2011.65569	0.91890
2009.72697	0.91886
2007.79825	0.91883
2005.86953	0.91875
2003.94081	0.91862
2002.01209	0.91845
2000.08337	0.91825
1998.15465	0.91807
1996.22593	0.91793
1994.29721	0.91783
1992.36849	0.91774
1990.43976	0.91765
1988.51104	0.91756
1986.58232	0.91743
1984.65360	0.91728
1982.72488	0.91713
1980.79616	0.91699
1978.86744	0.91688
1976.93872	0.91681
1975.01000	0.91677
1973.08128	0.91676
1971.15256	0.91675
1969.22384	0.91674
1967.29512	0.91670
1965.36640	0.91663
1963.43767	0.91655
1961.50895	0.91647
1959.58023	0.91640
1957.65151	0.91635
1955.72279	0.91629
1953.79407	0.91622
1951.86535	0.91614
1949.93663	0.91602
1948.00791	0.91586
1946.07919	0.91565
1944.15047	0.91537
1942.22175	0.91495
1940.29303	0.91434
1938.36431	0.91350
1936.43558	0.91246
1934.50686	0.91129
1932.57814	0.91010
1930.64942	0.90897
1928.72070	0.90796
1926.79198	0.90711
1924.86326	0.90650
1922.93454	0.90614
1921.00582	0.90602
1919.07710	0.90610
1917.14838	0.90636
1915.21966	0.90675
1913.29094	0.90724
1911.36222	0.90781
1909.43349	0.90844
1907.50477	0.90906
1905.57605	0.90958
1903.64733	0.90990
1901.71861	0.91001
1899.78989	0.90997
1897.86117	0.90990
1895.93245	0.90984
1894.00373	0.90983
1892.07501	0.90988
1890.14629	0.91000
1888.21757	0.91016
1886.28885	0.91034
1884.36013	0.91050
1882.43141	0.91063
1880.50268	0.91070
1878.57396	0.91072
1876.64524	0.91070
1874.71652	0.91066
1872.78780	0.91058
1870.85908	0.91038
1868.93036	0.91002
1867.00164	0.90953
1865.07292	0.90898
1863.14420	0.90846
1861.21548	0.90799
1859.28676	0.90758
1857.35804	0.90724
1855.42932	0.90699
1853.50059	0.90683
1851.57187	0.90677
1849.64315	0.90682
1847.71443	0.90695
1845.78571	0.90717
1843.85699	0.90749
1841.92827	0.90789
1839.99955	0.90834
1838.07083	0.90882
1836.14211	0.90924
1834.21339	0.90950
1832.28467	0.90956
1830.35595	0.90949
1828.42723	0.90939
1826.49850	0.90928
1824.56978	0.90917
1822.64106	0.90905
1820.71234	0.90891
1818.78362	0.90876
1816.85490	0.90858
1814.92618	0.90837
1812.99746	0.90812
1811.06874	0.90780
1809.14002	0.90738
1807.21130	0.90690
1805.28258	0.90641
1803.35386	0.90594
1801.42514	0.90546
1799.49641	0.90495
1797.56769	0.90437
1795.63897	0.90375
1793.71025	0.90318
1791.78153	0.90277
1789.85281	0.90253
1787.92409	0.90243
1785.99537	0.90245
1784.06665	0.90257
1782.13793	0.90279
1780.20921	0.90311
1778.28049	0.90350
1776.35177	0.90392
1774.42305	0.90433
1772.49433	0.90475
1770.56560	0.90515
1768.63688	0.90552
1766.70816	0.90579
1764.77944	0.90592
1762.85072	0.90590
1760.92200	0.90574
1758.99328	0.90548
1757.06456	0.90520
1755.13584	0.90498
1753.20712	0.90484
1751.27840	0.90474
1749.34968	0.90460
1747.42096	0.90444
1745.49224	0.90430
1743.56351	0.90421
1741.63479	0.90417
1739.70607	0.90418
1737.77735	0.90425
1735.84863	0.90439
1733.91991	0.90449
1731.99119	0.90449
1730.06247	0.90437
1728.13375	0.90419
1726.20503	0.90400
1724.27631	0.90381
1722.34759	0.90361
1720.41887	0.90343
1718.49015	0.90328
1716.56142	0.90312
1714.63270	0.90293
1712.70398	0.90264
1710.77526	0.90225
1708.84654	0.90181
1706.91782	0.90135
1704.98910	0.90093
1703.06038	0.90056
1701.13166	0.90020
1699.20294	0.89980
1697.27422	0.89929
1695.34550	0.89862
1693.41678	0.89780
1691.48806	0.89687
1689.55933	0.89586
1687.63061	0.89478
1685.70189	0.89361
1683.77317	0.89236
1681.84445	0.89109
1679.91573	0.88978
1677.98701	0.88835
1676.05829	0.88678
1674.12957	0.88506
1672.20085	0.88323
1670.27213	0.88137
1668.34341	0.87955
1666.41469	0.87787
1664.48597	0.87634
1662.55725	0.87494
1660.62852	0.87366
1658.69980	0.87252
1656.77108	0.87156
1654.84236	0.87079
1652.91364	0.87020
1650.98492	0.86974
1649.05620	0.86942
1647.12748	0.86926
1645.19876	0.86925
1643.27004	0.86931
1641.34132	0.86911
1639.41260	0.86803
1637.48388	0.86548
1635.55516	0.86087
1633.62643	0.85339
1631.69771	0.84242
1629.76899	0.82813
1627.84027	0.81154
1625.91155	0.79415
1623.98283	0.77751
1622.05411	0.76300
1620.12539	0.75148
1618.19667	0.74305
1616.26795	0.73722
1614.33923	0.73367
1612.41051	0.73270
1610.48179	0.73494
1608.55307	0.74055
1606.62434	0.74892
1604.69562	0.75885
1602.76690	0.76904
1600.83818	0.77860
1598.90946	0.78709
1596.98074	0.79429
1595.05202	0.79998
1593.12330	0.80427
1591.19458	0.80767
1589.26586	0.81037
1587.33714	0.81141
1585.40842	0.80926
1583.47970	0.80325
1581.55098	0.79390
1579.62225	0.78226
1577.69353	0.76974
1575.76481	0.75813
1573.83609	0.74891
1571.90737	0.74268
1569.97865	0.73922
1568.04993	0.73810
1566.12121	0.73919
1564.19249	0.74288
1562.26377	0.74974
1560.33505	0.76017
1558.40633	0.77403
1556.47761	0.79036
1554.54889	0.80777
1552.62017	0.82477
1550.69144	0.83930
1548.76272	0.84854
1546.83400	0.84990
1544.90528	0.84181
1542.97656	0.82405
1541.04784	0.79794
1539.11912	0.76660
1537.19040	0.73388
1535.26168	0.70262
1533.33296	0.67458
1531.40424	0.65091
1529.47552	0.63238
1527.54680	0.61959
1525.61808	0.61288
1523.68935	0.61237
1521.76063	0.61803
1519.83191	0.62966
1517.90319	0.64694
1515.97447	0.66951
1514.04575	0.69666
1512.11703	0.72690
1510.18831	0.75758
1508.25959	0.78357
1506.33087	0.79853
1504.40215	0.79962
1502.47343	0.78965
1500.54471	0.77446
1498.61599	0.75867
1496.68726	0.74429
1494.75854	0.73203
1492.82982	0.72231
1490.90110	0.71549
1488.97238	0.71188
1487.04366	0.71158
1485.11494	0.71460
1483.18622	0.72102
1481.25750	0.73099
1479.32878	0.74466
1477.40006	0.76203
1475.47134	0.78272
1473.54262	0.80554
1471.61390	0.82766
1469.68517	0.84470
1467.75645	0.85362
1465.82773	0.85552
1463.89901	0.85399
1461.97029	0.85174
1460.04157	0.84958
1458.11285	0.84745
1456.18413	0.84539
1454.25541	0.84356
1452.32669	0.84202
1450.39797	0.84073
1448.46925	0.83964
1446.54053	0.83869
1444.61181	0.83788
1442.68309	0.83718
1440.75436	0.83658
1438.82564	0.83608
1436.89692	0.83564
1434.96820	0.83531
1433.03948	0.83527
1431.11076	0.83566
1429.18204	0.83656
1427.25332	0.83793
1425.32460	0.83953
1423.39588	0.84101
1421.46716	0.84214
1419.53844	0.84280
1417.60972	0.84246
1415.68100	0.83992
1413.75227	0.83410
1411.82355	0.82504
1409.89483	0.81378
1407.96611	0.80166
1406.03739	0.78977
1404.10867	0.77898
1402.17995	0.76990
1400.25123	0.76300
1398.32251	0.75869
1396.39379	0.75732
1394.46507	0.75911
1392.53635	0.76406
1390.60763	0.77194
1388.67891	0.78223
1386.75018	0.79421
1384.82146	0.80712
1382.89274	0.82029
1380.96402	0.83286
1379.03530	0.84371
1377.10658	0.85199
1375.17786	0.85789
1373.24914	0.86218
1371.32042	0.86517
1369.39170	0.86658
1367.46298	0.86617
1365.53426	0.86400
1363.60554	0.86006
1361.67682	0.85421
1359.74809	0.84658
1357.81937	0.83789
1355.89065	0.82924
1353.96193	0.82151
1352.03321	0.81510
1350.10449	0.81006
1348.17577	0.80645
1346.24705	0.80450
1344.31833	0.80455
1342.38961	0.80682
1340.46089	0.81140
1338.53217	0.81808
1336.60345	0.82633
1334.67473	0.83527
1332.74601	0.84412
1330.81728	0.85245
1328.88856	0.85981
1326.95984	0.86530
1325.03112	0.86806
1323.10240	0.86807
1321.17368	0.86611
1319.24496	0.86253
1317.31624	0.85629
1315.38752	0.84581
1313.45880	0.83040
1311.53008	0.81075
1309.60136	0.78844
1307.67264	0.76544
1305.74392	0.74376
1303.81519	0.72524
1301.88647	0.71142
1299.95775	0.70343
1298.02903	0.70108
1296.10031	0.70159
1294.17159	0.70078
1292.24287	0.69677
1290.31415	0.69131
1288.38543	0.68736
1286.45671	0.68685
1284.52799	0.69035
1282.59927	0.69716
1280.67055	0.70572
1278.74183	0.71466
1276.81310	0.72341
1274.88438	0.73166
1272.95566	0.73895
1271.02694	0.74480
1269.09822	0.74872
1267.16950	0.75021
1265.24078	0.74915
1263.31206	0.74584
1261.38334	0.74031
1259.45462	0.73151
1257.52590	0.71792
1255.59718	0.70034
1253.66846	0.68303
1251.73974	0.67070
1249.81101	0.66523
1247.88229	0.66619
1245.95357	0.67295
1244.02485	0.68525
1242.09613	0.70274
1240.16741	0.72441
1238.23869	0.74831
1236.30997	0.77194
1234.38125	0.79322
1232.45253	0.81075
1230.52381	0.82363
1228.59509	0.83186
1226.66637	0.83653
1224.73765	0.83902
1222.80893	0.84032
1220.88020	0.84087
1218.95148	0.84078
1217.02276	0.83997
1215.09404	0.83825
1213.16532	0.83546
1211.23660	0.83171
1209.30788	0.82742
1207.37916	0.82311
1205.45044	0.81933
1203.52172	0.81656
1201.59300	0.81476
1199.66428	0.81347
1197.73556	0.81255
1195.80684	0.81233
1193.87811	0.81324
1191.94939	0.81559
1190.02067	0.81948
1188.09195	0.82449
1186.16323	0.82914
1184.23451	0.83124
1182.30579	0.82942
1180.37707	0.82431
1178.44835	0.81757
1176.51963	0.81044
1174.59091	0.80352
1172.66219	0.79700
1170.73347	0.79056
1168.80475	0.78379
1166.87602	0.77697
1164.94730	0.77073
1163.01858	0.76547
1161.08986	0.76169
1159.16114	0.76026
1157.23242	0.76193
1155.30370	0.76683
1153.37498	0.77459
1151.44626	0.78441
1149.51754	0.79509
1147.58882	0.80523
1145.66010	0.81410
1143.73138	0.82222
1141.80266	0.83034
1139.87393	0.83828
1137.94521	0.84525
1136.01649	0.85067
1134.08777	0.85419
1132.15905	0.85567
1130.23033	0.85549
1128.30161	0.85446
1126.37289	0.85270
1124.44417	0.84909
1122.51545	0.84263
1120.58673	0.83332
1118.65801	0.82166
1116.72929	0.80850
1114.80057	0.79543
1112.87184	0.78413
1110.94312	0.77571
1109.01440	0.77063
1107.08568	0.76874
1105.15696	0.76938
1103.22824	0.77187
1101.29952	0.77619
1099.37080	0.78278
1097.44208	0.79199
1095.51336	0.80368
1093.58464	0.81728
1091.65592	0.83186
1089.72720	0.84610
1087.79848	0.85836
1085.86976	0.86728
1083.94103	0.87277
1082.01231	0.87557
1080.08359	0.87642
1078.15487	0.87624
1076.22615	0.87613
1074.29743	0.87654
1072.36871	0.87732
1070.43999	0.87822
1068.51127	0.87906
1066.58255	0.87978
1064.65383	0.88035
1062.72511	0.88072
1060.79639	0.88082
1058.86767	0.88064
1056.93894	0.88023
1055.01022	0.87972
1053.08150	0.87929
1051.15278	0.87899
1049.22406	0.87888
1047.29534	0.87896
1045.36662	0.87918
1043.43790	0.87955
1041.50918	0.88008
1039.58046	0.88074
1037.65174	0.88154
1035.72302	0.88257
1033.79430	0.88384
1031.86558	0.88518
1029.93685	0.88631
1028.00813	0.88705
1026.07941	0.88740
1024.15069	0.88741
1022.22197	0.88715
1020.29325	0.88668
1018.36453	0.88614
1016.43581	0.88570
1014.50709	0.88549
1012.57837	0.88553
1010.64965	0.88577
1008.72093	0.88612
1006.79221	0.88652
1004.86349	0.88699
1002.93476	0.88764
1001.00604	0.88854
999.07732	0.88969
997.14860	0.89105
995.21988	0.89252
993.29116	0.89386
991.36244	0.89491
989.43372	0.89568
987.50500	0.89630
985.57628	0.89684
983.64756	0.89736
981.71884	0.89781
979.79012	0.89812
977.86140	0.89829
975.93268	0.89839
974.00395	0.89843
972.07523	0.89836
970.14651	0.89819
968.21779	0.89798
966.28907	0.89784
964.36035	0.89787
962.43163	0.89812
960.50291	0.89854
958.57419	0.89909
956.64547	0.89983
954.71675	0.90081
952.78803	0.90213
950.85931	0.90399
948.93059	0.90609
947.00186	0.90711
945.07314	0.90582
943.14442	0.90232
941.21570	0.89763
939.28698	0.89262
937.35826	0.88783
935.42954	0.88352
933.50082	0.87980
931.57210	0.87676
929.64338	0.87451
927.71466	0.87319
925.78594	0.87290
923.85722	0.87367
921.92850	0.87552
919.99977	0.87847
918.07105	0.88255
916.14233	0.88772
914.21361	0.89386
912.28489	0.90033
910.35617	0.90539
908.42745	0.90732
906.49873	0.90639
904.57001	0.90438
902.64129	0.90252
900.71257	0.90101
898.78385	0.89976
896.85513	0.89869
894.92641	0.89762
892.99768	0.89646
891.06896	0.89532
889.14024	0.89443
887.21152	0.89396
885.28280	0.89402
883.35408	0.89468
881.42536	0.89601
879.49664	0.89799
877.56792	0.90053
875.63920	0.90342
873.71048	0.90620
871.78176	0.90835
869.85304	0.91006
867.92432	0.91247
865.99560	0.91628
864.06687	0.91966
862.13815	0.91824
860.20943	0.90920
858.28071	0.89420
856.35199	0.87691
854.42327	0.86005
852.49455	0.84526
850.56583	0.83338
848.63711	0.82404
846.70839	0.81596
844.77967	0.80868
842.85095	0.80312
840.92223	0.80036
838.99351	0.80108
837.06478	0.80592
835.13606	0.81556
833.20734	0.82964
831.27862	0.84528
829.34990	0.85798
827.42118	0.86412
825.49246	0.86171
823.56374	0.85091
821.63502	0.83564
819.70630	0.82145
817.77758	0.81129
815.84886	0.80540
813.92014	0.80335
811.99142	0.80425
810.06269	0.80638
808.13397	0.80870
806.20525	0.81217
804.27653	0.81841
802.34781	0.82801
800.41909	0.84075
798.49037	0.85606
796.56165	0.87265
794.63293	0.88792
792.70421	0.89867
790.77549	0.90376
788.84677	0.90521
786.91805	0.90567
784.98933	0.90634
783.06060	0.90730
781.13188	0.90834
779.20316	0.90919
777.27444	0.90968
775.34572	0.90976
773.41700	0.90929
771.48828	0.90806
769.55956	0.90633
767.63084	0.90459
765.70212	0.90265
763.77340	0.89976
761.84468	0.89568
759.91596	0.89109
757.98724	0.88682
756.05852	0.88333
754.12979	0.88074
752.20107	0.87905
750.27235	0.87823
748.34363	0.87814
746.41491	0.87845
744.48619	0.87886
742.55747	0.87923
740.62875	0.87923
738.70003	0.87900
736.77131	0.87902
734.84259	0.87968
732.91387	0.88106
730.98515	0.88294
729.05643	0.88474
727.12770	0.88585
725.19898	0.88618
723.27026	0.88653
721.34154	0.88777
719.41282	0.89011
717.48410	0.89324
715.55538	0.89689
713.62666	0.90083
711.69794	0.90478
709.76922	0.90845
707.84050	0.91165
705.91178	0.91437
703.98306	0.91665
702.05434	0.91828
700.12561	0.91936
698.19689	0.91972
696.26817	0.91884
694.33945	0.91627
692.41073	0.91205
690.48201	0.90664
688.55329	0.90060
686.62457	0.89478
684.69585	0.88994
682.76713	0.88615
680.83841	0.88335
678.90969	0.88167
676.98097	0.88126
675.05225	0.88207
673.12352	0.88404
671.19480	0.88715
669.26608	0.89141
667.33736	0.89667
665.40864	0.90254
663.47992	0.90855
661.55120	0.91420
659.62248	0.91878
657.69376	0.92155
655.76504	0.92237
653.83632	0.92188
651.90760	0.92087
649.97888	0.91990
648.05016	0.91939
646.12144	0.91928
644.19271	0.91926
642.26399	0.91939
640.33527	0.91981
638.40655	0.92052
636.47783	0.92140
634.54911	0.92240
632.62039	0.92356
630.69167	0.92496
628.76295	0.92665
626.83423	0.92868
624.90551	0.93060
622.97679	0.93111
621.04807	0.92899
619.11935	0.92443
617.19062	0.91873
615.26190	0.91311
613.33318	0.90811
611.40446	0.90390
609.47574	0.90054
607.54702	0.89818
605.61830	0.89699
603.68958	0.89695
601.76086	0.89800
599.83214	0.90006
597.90342	0.90303
595.97470	0.90676
594.04598	0.91112
592.11726	0.91599
590.18853	0.92104
588.25981	0.92569
586.33109	0.92902
584.40237	0.93033
582.47365	0.93012
580.54493	0.92973
578.61621	0.92999
576.68749	0.93091
574.75877	0.93251
572.83005	0.93493
570.90133	0.93719
568.97261	0.93703
567.04389	0.93327
565.11517	0.92707
563.18644	0.92017
561.25772	0.91357
559.32900	0.90773
557.40028	0.90293
555.47156	0.89930
553.54284	0.89697
551.61412	0.89607
549.68540	0.89686
547.75668	0.89938
545.82796	0.90325
543.89924	0.90796
541.97052	0.91345
540.04180	0.91982
538.11308	0.92708
536.18436	0.93498
534.25563	0.94256
532.32691	0.94800
530.39819	0.95023
528.46947	0.95001
526.54075	0.94852
524.61203	0.94598
522.68331	0.94249
520.75459	0.93855
518.82587	0.93465
516.89715	0.93109
514.96843	0.92814
513.03971	0.92608
511.11099	0.92488
509.18227	0.92435
507.25354	0.92452
505.32482	0.92566
503.39610	0.92807
501.46738	0.93190
499.53866	0.93722
497.60994	0.94383
495.68122	0.95087
493.75250	0.95719
491.82378	0.96177
489.89506	0.96404
487.96634	0.96417
486.03762	0.96320
484.10890	0.96215
482.18018	0.96131
480.25145	0.96076
478.32273	0.96085
476.39401	0.96184
474.46529	0.96364
472.53657	0.96597
470.60785	0.96877
468.67913	0.97208
466.75041	0.97579
464.82169	0.97956
462.89297	0.98297
460.96425	0.98545
459.03553	0.98655
457.10681	0.98622
455.17809	0.98478
453.24936	0.98276
451.32064	0.98089
449.39192	0.97977
447.46320	0.97893
445.53448	0.97697
443.60576	0.97329
441.67704	0.96881
439.74832	0.96449
437.81960	0.96069
435.89088	0.95771
433.96216	0.95558
432.03344	0.95403
430.10472	0.95320
428.17600	0.95352
426.24728	0.95489
424.31855	0.95709
422.38983	0.95991
420.46111	0.96357
418.53239	0.96830
416.60367	0.96830
414.67495	0.96830
412.74623	0.96830
410.81751	0.96830
408.88879	0.96830
406.96007	0.96830
405.03135	0.96830
403.10263	0.96830
401.17391	0.96830
399.24519	0.96830
