3996.30929	0.99974
3994.38057	0.99974
3992.45185	0.99974
3990.52313	0.99974
3988.59441	0.99974
3986.66569	0.99974
3984.73697	0.99974
3982.80825	0.99974
3980.87953	0.99974
3978.95081	0.99974
3977.02209	0.99974
3975.09337	0.99959
3973.16465	0.99944
3971.23593	0.99934
3969.30720	0.99934
3967.37848	0.99941
3965.44976	0.99946
3963.52104	0.99946
3961.59232	0.99947
3959.66360	0.99950
3957.73488	0.99952
3955.80616	0.99955
3953.87744	0.99956
3951.94872	0.99955
3950.02000	0.99957
3948.09128	0.99959
3946.16256	0.99956
3944.23384	0.99949
3942.30511	0.99940
3940.37639	0.99932
3938.44767	0.99922
3936.51895	0.99910
3934.59023	0.99899
3932.66151	0.99894
3930.73279	0.99889
3928.80407	0.99879
3926.87535	0.99865
3924.94663	0.99859
3923.01791	0.99863
3921.08919	0.99869
3919.16047	0.99876
3917.23175	0.99887
3915.30302	0.99894
3913.37430	0.99893
3911.44558	0.99891
3909.51686	0.99889
3907.58814	0.99884
3905.65942	0.99878
3903.73070	0.99873
3901.80198	0.99864
3899.87326	0.99853
3897.94454	0.99842
3896.01582	0.99833
3894.08710	0.99826
3892.15838	0.99822
3890.22966	0.99820
3888.30094	0.99822
3886.37221	0.99829
3884.44349	0.99839
3882.51477	0.99850
3880.58605	0.99863
3878.65733	0.99867
3876.72861	0.99860
3874.79989	0.99859
3872.87117	0.99878
3870.94245	0.99908
3869.01373	0.99932
3867.08501	0.99948
3865.15629	0.99960
3863.22757	0.99968
3861.29885	0.99967
3859.37012	0.99959
3857.44140	0.99949
3855.51268	0.99934
3853.58396	0.99905
3851.65524	0.99867
3849.72652	0.99829
3847.79780	0.99788
3845.86908	0.99745
3843.94036	0.99701
3842.01164	0.99657
3840.08292	0.99612
3838.15420	0.99565
3836.22548	0.99530
3834.29676	0.99514
3832.36803	0.99498
3830.43931	0.99472
3828.51059	0.99453
3826.58187	0.99453
3824.65315	0.99466
3822.72443	0.99487
3820.79571	0.99525
3818.86699	0.99575
3816.93827	0.99620
3815.00955	0.99661
3813.08083	0.99706
3811.15211	0.99747
3809.22339	0.99776
3807.29467	0.99790
3805.36594	0.99798
3803.43722	0.99807
3801.50850	0.99814
3799.57978	0.99819
3797.65106	0.99826
3795.72234	0.99832
3793.79362	0.99829
3791.86490	0.99823
3789.93618	0.99827
3788.00746	0.99845
3786.07874	0.99867
3784.15002	0.99890
3782.22130	0.99910
3780.29258	0.99919
3778.36386	0.99916
3776.43513	0.99904
3774.50641	0.99881
3772.57769	0.99852
3770.64897	0.99829
3768.72025	0.99815
3766.79153	0.99805
3764.86281	0.99806
3762.93409	0.99822
3761.00537	0.99832
3759.07665	0.99825
3757.14793	0.99805
3755.21921	0.99785
3753.29049	0.99769
3751.36177	0.99760
3749.43304	0.99758
3747.50432	0.99757
3745.57560	0.99755
3743.64688	0.99749
3741.71816	0.99742
3739.78944	0.99738
3737.86072	0.99734
3735.93200	0.99730
3734.00328	0.99735
3732.07456	0.99752
3730.14584	0.99774
3728.21712	0.99796
3726.28840	0.99824
3724.35968	0.99848
3722.43095	0.99858
3720.50223	0.99867
3718.57351	0.99889
3716.64479	0.99920
3714.71607	0.99949
3712.78735	0.99975
3710.85863	1.00002
3708.92991	1.00032
3707.00119	1.00064
3705.07247	1.00086
3703.14375	1.00089
3701.21503	1.00075
3699.28631	1.00047
3697.35759	1.00016
3695.42886	0.99989
3693.50014	0.99961
3691.57142	0.99924
3689.64270	0.99884
3687.71398	0.99842
3685.78526	0.99796
3683.85654	0.99752
3681.92782	0.99713
3679.99910	0.99675
3678.07038	0.99636
3676.14166	0.99601
3674.21294	0.99571
3672.28422	0.99546
3670.35550	0.99530
3668.42678	0.99521
3666.49805	0.99501
3664.56933	0.99455
3662.64061	0.99392
3660.71189	0.99328
3658.78317	0.99271
3656.85445	0.99214
3654.92573	0.99144
3652.99701	0.99062
3651.06829	0.98974
3649.13957	0.98888
3647.21085	0.98801
3645.28213	0.98702
3643.35341	0.98591
3641.42469	0.98475
3639.49596	0.98366
3637.56724	0.98266
3635.63852	0.98165
3633.70980	0.98056
3631.78108	0.97941
3629.85236	0.97817
3627.92364	0.97670
3625.99492	0.97496
3624.06620	0.97308
3622.13748	0.97120
3620.20876	0.96933
3618.28004	0.96740
3616.35132	0.96537
3614.42260	0.96332
3612.49387	0.96134
3610.56515	0.95946
3608.63643	0.95764
3606.70771	0.95582
3604.77899	0.95402
3602.85027	0.95226
3600.92155	0.95057
3598.99283	0.94890
3597.06411	0.94717
3595.13539	0.94538
3593.20667	0.94359
3591.27795	0.94179
3589.34923	0.93995
3587.42051	0.93811
3585.49178	0.93632
3583.56306	0.93454
3581.63434	0.93271
3579.70562	0.93085
3577.77690	0.92898
3575.84818	0.92710
3573.91946	0.92524
3571.99074	0.92345
3570.06202	0.92174
3568.13330	0.92001
3566.20458	0.91815
3564.27586	0.91619
3562.34714	0.91424
3560.41842	0.91229
3558.48970	0.91034
3556.56097	0.90839
3554.63225	0.90648
3552.70353	0.90457
3550.77481	0.90266
3548.84609	0.90076
3546.91737	0.89879
3544.98865	0.89670
3543.05993	0.89450
3541.13121	0.89223
3539.20249	0.88986
3537.27377	0.88742
3535.34505	0.88494
3533.41633	0.88242
3531.48761	0.87985
3529.55888	0.87723
3527.63016	0.87457
3525.70144	0.87193
3523.77272	0.86940
3521.84400	0.86698
3519.91528	0.86465
3517.98656	0.86246
3516.05784	0.86049
3514.12912	0.85874
3512.20040	0.85722
3510.27168	0.85592
3508.34296	0.85485
3506.41424	0.85392
3504.48552	0.85313
3502.55679	0.85251
3500.62807	0.85208
3498.69935	0.85179
3496.77063	0.85160
3494.84191	0.85146
3492.91319	0.85132
3490.98447	0.85117
3489.05575	0.85105
3487.12703	0.85097
3485.19831	0.85092
3483.26959	0.85082
3481.34087	0.85068
3479.41215	0.85061
3477.48343	0.85064
3475.55470	0.85069
3473.62598	0.85071
3471.69726	0.85067
3469.76854	0.85056
3467.83982	0.85035
3465.91110	0.85008
3463.98238	0.84980
3462.05366	0.84954
3460.12494	0.84930
3458.19622	0.84906
3456.26750	0.84879
3454.33878	0.84849
3452.41006	0.84816
3450.48134	0.84784
3448.55262	0.84755
3446.62389	0.84724
3444.69517	0.84690
3442.76645	0.84662
3440.83773	0.84647
3438.90901	0.84637
3436.98029	0.84624
3435.05157	0.84609
3433.12285	0.84594
3431.19413	0.84578
3429.26541	0.84557
3427.33669	0.84528
3425.40797	0.84496
3423.47925	0.84460
3421.55053	0.84424
3419.62180	0.84394
3417.69308	0.84369
3415.76436	0.84347
3413.83564	0.84328
3411.90692	0.84322
3409.97820	0.84334
3408.04948	0.84360
3406.12076	0.84402
3404.19204	0.84463
3402.26332	0.84538
3400.33460	0.84616
3398.40588	0.84692
3396.47716	0.84768
3394.54844	0.84845
3392.61971	0.84920
3390.69099	0.84986
3388.76227	0.85044
3386.83355	0.85093
3384.90483	0.85134
3382.97611	0.85174
3381.04739	0.85212
3379.11867	0.85243
3377.18995	0.85261
3375.26123	0.85271
3373.33251	0.85279
3371.40379	0.85286
3369.47507	0.85290
3367.54635	0.85292
3365.61762	0.85294
3363.68890	0.85296
3361.76018	0.85304
3359.83146	0.85319
3357.90274	0.85340
3355.97402	0.85363
3354.04530	0.85386
3352.11658	0.85409
3350.18786	0.85427
3348.25914	0.85430
3346.33042	0.85409
3344.40170	0.85360
3342.47298	0.85270
3340.54426	0.85129
3338.61553	0.84926
3336.68681	0.84642
3334.75809	0.84237
3332.82937	0.83654
3330.90065	0.82818
3328.97193	0.81647
3327.04321	0.80084
3325.11449	0.78116
3323.18577	0.75785
3321.25705	0.73190
3319.32833	0.70474
3317.39961	0.67799
3315.47089	0.65315
3313.54217	0.63146
3311.61345	0.61392
3309.68472	0.60134
3307.75600	0.59424
3305.82728	0.59285
3303.89856	0.59707
3301.96984	0.60654
3300.04112	0.62056
3298.11240	0.63803
3296.18368	0.65759
3294.25496	0.67767
3292.32624	0.69672
3290.39752	0.71350
3288.46880	0.72735
3286.54008	0.73819
3284.61136	0.74634
3282.68263	0.75247
3280.75391	0.75725
3278.82519	0.76116
3276.89647	0.76442
3274.96775	0.76722
3273.03903	0.76975
3271.11031	0.77219
3269.18159	0.77452
3267.25287	0.77670
3265.32415	0.77872
3263.39543	0.78057
3261.46671	0.78223
3259.53799	0.78371
3257.60927	0.78500
3255.68054	0.78607
3253.75182	0.78699
3251.82310	0.78787
3249.89438	0.78869
3247.96566	0.78938
3246.03694	0.78992
3244.10822	0.79032
3242.17950	0.79057
3240.25078	0.79066
3238.32206	0.79059
3236.39334	0.79042
3234.46462	0.79018
3232.53590	0.78985
3230.60718	0.78945
3228.67845	0.78906
3226.74973	0.78869
3224.82101	0.78834
3222.89229	0.78806
3220.96357	0.78790
3219.03485	0.78791
3217.10613	0.78811
3215.17741	0.78853
3213.24869	0.78912
3211.31997	0.78981
3209.39125	0.79054
3207.46253	0.79131
3205.53381	0.79212
3203.60509	0.79303
3201.67637	0.79400
3199.74764	0.79501
3197.81892	0.79597
3195.89020	0.79682
3193.96148	0.79761
3192.03276	0.79842
3190.10404	0.79920
3188.17532	0.79988
3186.24660	0.80048
3184.31788	0.80101
3182.38916	0.80148
3180.46044	0.80191
3178.53172	0.80230
3176.60300	0.80261
3174.67428	0.80278
3172.74555	0.80278
3170.81683	0.80263
3168.88811	0.80238
3166.95939	0.80210
3165.03067	0.80185
3163.10195	0.80166
3161.17323	0.80156
3159.24451	0.80162
3157.31579	0.80191
3155.38707	0.80243
3153.45835	0.80312
3151.52963	0.80398
3149.60091	0.80500
3147.67219	0.80621
3145.74346	0.80759
3143.81474	0.80914
3141.88602	0.81081
3139.95730	0.81250
3138.02858	0.81409
3136.09986	0.81554
3134.17114	0.81683
3132.24242	0.81795
3130.31370	0.81889
3128.38498	0.81960
3126.45626	0.82003
3124.52754	0.82011
3122.59882	0.81976
3120.67010	0.81891
3118.74137	0.81760
3116.81265	0.81591
3114.88393	0.81402
3112.95521	0.81204
3111.02649	0.80989
3109.09777	0.80711
3107.16905	0.80316
3105.24033	0.79782
3103.31161	0.79138
3101.38289	0.78448
3099.45417	0.77786
3097.52545	0.77205
3095.59673	0.76732
3093.66801	0.76368
3091.73929	0.76091
3089.81056	0.75860
3087.88184	0.75637
3085.95312	0.75405
3084.02440	0.75164
3082.09568	0.74918
3080.16696	0.74680
3078.23824	0.74461
3076.30952	0.74264
3074.38080	0.74069
3072.45208	0.73830
3070.52336	0.73495
3068.59464	0.73048
3066.66592	0.72520
3064.73720	0.71958
3062.80847	0.71395
3060.87975	0.70857
3058.95103	0.70357
3057.02231	0.69897
3055.09359	0.69459
3053.16487	0.68998
3051.23615	0.68469
3049.30743	0.67877
3047.37871	0.67281
3045.44999	0.66751
3043.52127	0.66337
3041.59255	0.66079
3039.66383	0.66006
3037.73511	0.66136
3035.80638	0.66461
3033.87766	0.66963
3031.94894	0.67619
3030.02022	0.68397
3028.09150	0.69253
3026.16278	0.70145
3024.23406	0.71046
3022.30534	0.71947
3020.37662	0.72836
3018.44790	0.73683
3016.51918	0.74440
3014.59046	0.75063
3012.66174	0.75537
3010.73302	0.75884
3008.80429	0.76136
3006.87557	0.76307
3004.94685	0.76399
3003.01813	0.76415
3001.08941	0.76367
2999.16069	0.76267
2997.23197	0.76126
2995.30325	0.75956
2993.37453	0.75761
2991.44581	0.75543
2989.51709	0.75317
2987.58837	0.75106
2985.65965	0.74937
2983.73093	0.74830
2981.80221	0.74797
2979.87348	0.74841
2977.94476	0.74964
2976.01604	0.75161
2974.08732	0.75426
2972.15860	0.75743
2970.22988	0.76097
2968.30116	0.76476
2966.37244	0.76879
2964.44372	0.77302
2962.51500	0.77731
2960.58628	0.78146
2958.65756	0.78528
2956.72884	0.78861
2954.80012	0.79134
2952.87139	0.79348
2950.94267	0.79518
2949.01395	0.79654
2947.08523	0.79761
2945.15651	0.79840
2943.22779	0.79888
2941.29907	0.79905
2939.37035	0.79898
2937.44163	0.79871
2935.51291	0.79832
2933.58419	0.79788
2931.65547	0.79745
2929.72675	0.79709
2927.79803	0.79683
2925.86930	0.79668
2923.94058	0.79666
2922.01186	0.79680
2920.08314	0.79713
2918.15442	0.79768
2916.22570	0.79850
2914.29698	0.79958
2912.36826	0.80081
2910.43954	0.80202
2908.51082	0.80300
2906.58210	0.80363
2904.65338	0.80388
2902.72466	0.80379
2900.79594	0.80341
2898.86721	0.80279
2896.93849	0.80197
2895.00977	0.80103
2893.08105	0.80012
2891.15233	0.79934
2889.22361	0.79877
2887.29489	0.79848
2885.36617	0.79859
2883.43745	0.79912
2881.50873	0.80003
2879.58001	0.80129
2877.65129	0.80283
2875.72257	0.80448
2873.79385	0.80605
2871.86513	0.80739
2869.93640	0.80842
2868.00768	0.80914
2866.07896	0.80956
2864.15024	0.80963
2862.22152	0.80928
2860.29280	0.80847
2858.36408	0.80725
2856.43536	0.80580
2854.50664	0.80428
2852.57792	0.80287
2850.64920	0.80167
2848.72048	0.80078
2846.79176	0.80023
2844.86304	0.80002
2842.93431	0.80009
2841.00559	0.80042
2839.07687	0.80097
2837.14815	0.80170
2835.21943	0.80252
2833.29071	0.80335
2831.36199	0.80411
2829.43327	0.80473
2827.50455	0.80513
2825.57583	0.80525
2823.64711	0.80507
2821.71839	0.80467
2819.78967	0.80415
2817.86095	0.80362
2815.93222	0.80314
2814.00350	0.80285
2812.07478	0.80281
2810.14606	0.80302
2808.21734	0.80346
2806.28862	0.80413
2804.35990	0.80504
2802.43118	0.80616
2800.50246	0.80746
2798.57374	0.80885
2796.64502	0.81027
2794.71630	0.81164
2792.78758	0.81291
2790.85886	0.81403
2788.93013	0.81496
2787.00141	0.81561
2785.07269	0.81594
2783.14397	0.81589
2781.21525	0.81546
2779.28653	0.81469
2777.35781	0.81362
2775.42909	0.81234
2773.50037	0.81093
2771.57165	0.80949
2769.64293	0.80817
2767.71421	0.80705
2765.78549	0.80624
2763.85677	0.80582
2761.92805	0.80583
2759.99932	0.80634
2758.07060	0.80740
2756.14188	0.80901
2754.21316	0.81116
2752.28444	0.81378
2750.35572	0.81673
2748.42700	0.81985
2746.49828	0.82302
2744.56956	0.82613
2742.64084	0.82913
2740.71212	0.83194
2738.78340	0.83449
2736.85468	0.83673
2734.92596	0.83865
2732.99723	0.84026
2731.06851	0.84156
2729.13979	0.84254
2727.21107	0.84319
2725.28235	0.84352
2723.35363	0.84362
2721.42491	0.84358
2719.49619	0.84350
2717.56747	0.84344
2715.63875	0.84346
2713.71003	0.84360
2711.78131	0.84386
2709.85259	0.84422
2707.92387	0.84471
2705.99514	0.84534
2704.06642	0.84608
2702.13770	0.84686
2700.20898	0.84764
2698.28026	0.84841
2696.35154	0.84917
2694.42282	0.84991
2692.49410	0.85062
2690.56538	0.85130
2688.63666	0.85201
2686.70794	0.85278
2684.77922	0.85359
2682.85050	0.85441
2680.92178	0.85519
2678.99305	0.85588
2677.06433	0.85649
2675.13561	0.85697
2673.20689	0.85728
2671.27817	0.85738
2669.34945	0.85729
2667.42073	0.85701
2665.49201	0.85655
2663.56329	0.85594
2661.63457	0.85531
2659.70585	0.85474
2657.77713	0.85428
2655.84841	0.85399
2653.91969	0.85396
2651.99097	0.85428
2650.06224	0.85496
2648.13352	0.85596
2646.20480	0.85717
2644.27608	0.85851
2642.34736	0.85987
2640.41864	0.86125
2638.48992	0.86264
2636.56120	0.86401
2634.63248	0.86528
2632.70376	0.86642
2630.77504	0.86741
2628.84632	0.86827
2626.91760	0.86900
2624.98888	0.86964
2623.06015	0.87018
2621.13143	0.87056
2619.20271	0.87078
2617.27399	0.87089
2615.34527	0.87097
2613.41655	0.87104
2611.48783	0.87110
2609.55911	0.87118
2607.63039	0.87128
2605.70167	0.87140
2603.77295	0.87160
2601.84423	0.87196
2599.91551	0.87250
2597.98679	0.87320
2596.05806	0.87402
2594.12934	0.87494
2592.20062	0.87593
2590.27190	0.87697
2588.34318	0.87805
2586.41446	0.87915
2584.48574	0.88024
2582.55702	0.88132
2580.62830	0.88240
2578.69958	0.88349
2576.77086	0.88454
2574.84214	0.88555
2572.91342	0.88652
2570.98470	0.88748
2569.05597	0.88846
2567.12725	0.88943
2565.19853	0.89036
2563.26981	0.89120
2561.34109	0.89194
2559.41237	0.89256
2557.48365	0.89309
2555.55493	0.89352
2553.62621	0.89391
2551.69749	0.89429
2549.76877	0.89469
2547.84005	0.89511
2545.91133	0.89558
2543.98261	0.89612
2542.05389	0.89672
2540.12516	0.89737
2538.19644	0.89808
2536.26772	0.89887
2534.33900	0.89975
2532.41028	0.90074
2530.48156	0.90182
2528.55284	0.90294
2526.62412	0.90404
2524.69540	0.90510
2522.76668	0.90612
2520.83796	0.90707
2518.90924	0.90798
2516.98052	0.90882
2515.05180	0.90959
2513.12307	0.91031
2511.19435	0.91100
2509.26563	0.91165
2507.33691	0.91228
2505.40819	0.91288
2503.47947	0.91346
2501.55075	0.91406
2499.62203	0.91467
2497.69331	0.91528
2495.76459	0.91590
2493.83587	0.91655
2491.90715	0.91726
2489.97843	0.91800
2488.04971	0.91877
2486.12098	0.91956
2484.19226	0.92038
2482.26354	0.92120
2480.33482	0.92200
2478.40610	0.92276
2476.47738	0.92348
2474.54866	0.92415
2472.61994	0.92476
2470.69122	0.92531
2468.76250	0.92579
2466.83378	0.92620
2464.90506	0.92652
2462.97634	0.92680
2461.04762	0.92706
2459.11889	0.92735
2457.19017	0.92768
2455.26145	0.92806
2453.33273	0.92847
2451.40401	0.92889
2449.47529	0.92939
2447.54657	0.92998
2445.61785	0.93060
2443.68913	0.93121
2441.76041	0.93179
2439.83169	0.93234
2437.90297	0.93282
2435.97425	0.93324
2434.04553	0.93362
2432.11681	0.93398
2430.18808	0.93431
2428.25936	0.93462
2426.33064	0.93491
2424.40192	0.93522
2422.47320	0.93557
2420.54448	0.93596
2418.61576	0.93633
2416.68704	0.93664
2414.75832	0.93688
2412.82960	0.93705
2410.90088	0.93716
2408.97216	0.93720
2407.04344	0.93718
2405.11472	0.93709
2403.18599	0.93701
2401.25727	0.93696
2399.32855	0.93693
2397.39983	0.93696
2395.47111	0.93709
2393.54239	0.93727
2391.61367	0.93748
2389.68495	0.93771
2387.75623	0.93794
2385.82751	0.93816
2383.89879	0.93832
2381.97007	0.93833
2380.04135	0.93830
2378.11263	0.93838
2376.18390	0.93856
2374.25518	0.93871
2372.32646	0.93888
2370.39774	0.93902
2368.46902	0.93892
2366.54030	0.93848
2364.61158	0.93796
2362.68286	0.93765
2360.75414	0.93756
2358.82542	0.93760
2356.89670	0.93778
2354.96798	0.93814
2353.03926	0.93873
2351.11054	0.93947
2349.18181	0.94025
2347.25309	0.94100
2345.32437	0.94169
2343.39565	0.94238
2341.46693	0.94325
2339.53821	0.94428
2337.60949	0.94520
2335.68077	0.94591
2333.75205	0.94642
2331.82333	0.94664
2329.89461	0.94654
2327.96589	0.94633
2326.03717	0.94635
2324.10845	0.94663
2322.17973	0.94698
2320.25100	0.94742
2318.32228	0.94805
2316.39356	0.94888
2314.46484	0.94984
2312.53612	0.95084
2310.60740	0.95184
2308.67868	0.95288
2306.74996	0.95399
2304.82124	0.95515
2302.89252	0.95630
2300.96380	0.95737
2299.03508	0.95836
2297.10636	0.95933
2295.17764	0.96033
2293.24891	0.96137
2291.32019	0.96242
2289.39147	0.96347
2287.46275	0.96446
2285.53403	0.96537
2283.60531	0.96618
2281.67659	0.96690
2279.74787	0.96750
2277.81915	0.96802
2275.89043	0.96851
2273.96171	0.96900
2272.03299	0.96953
2270.10427	0.97013
2268.17555	0.97080
2266.24682	0.97146
2264.31810	0.97207
2262.38938	0.97258
2260.46066	0.97300
2258.53194	0.97340
2256.60322	0.97387
2254.67450	0.97438
2252.74578	0.97505
2250.81706	0.97627
2248.88834	0.97703
2246.95962	0.97255
2245.03090	0.95643
2243.10218	0.92613
2241.17346	0.88475
2239.24473	0.83807
2237.31601	0.79148
2235.38729	0.74893
2233.45857	0.71297
2231.52985	0.68509
2229.60113	0.66611
2227.67241	0.65639
2225.74369	0.65612
2223.81497	0.66524
2221.88625	0.68350
2219.95753	0.71034
2218.02881	0.74469
2216.10009	0.78490
2214.17137	0.82871
2212.24265	0.87264
2210.31392	0.91107
2208.38520	0.93773
2206.45648	0.95049
2204.52776	0.95324
2202.59904	0.95196
2200.67032	0.95046
2198.74160	0.95004
2196.81288	0.95068
2194.88416	0.95193
2192.95544	0.95328
2191.02672	0.95443
2189.09800	0.95535
2187.16928	0.95608
2185.24056	0.95666
2183.31183	0.95706
2181.38311	0.95729
2179.45439	0.95734
2177.52567	0.95734
2175.59695	0.95743
2173.66823	0.95769
2171.73951	0.95814
2169.81079	0.95876
2167.88207	0.95955
2165.95335	0.96053
2164.02463	0.96170
2162.09591	0.96300
2160.16719	0.96437
2158.23847	0.96567
2156.30974	0.96675
2154.38102	0.96754
2152.45230	0.96813
2150.52358	0.96862
2148.59486	0.96907
2146.66614	0.96945
2144.73742	0.96980
2142.80870	0.97012
2140.87998	0.97044
2138.95126	0.97076
2137.02254	0.97109
2135.09382	0.97140
2133.16510	0.97165
2131.23638	0.97186
2129.30765	0.97206
2127.37893	0.97225
2125.45021	0.97238
2123.52149	0.97246
2121.59277	0.97252
2119.66405	0.97258
2117.73533	0.97261
2115.80661	0.97259
2113.87789	0.97254
2111.94917	0.97247
2110.02045	0.97238
2108.09173	0.97230
2106.16301	0.97224
2104.23429	0.97226
2102.30557	0.97235
2100.37684	0.97253
2098.44812	0.97274
2096.51940	0.97294
2094.59068	0.97314
2092.66196	0.97336
2090.73324	0.97360
2088.80452	0.97385
2086.87580	0.97409
2084.94708	0.97433
2083.01836	0.97453
2081.08964	0.97469
2079.16092	0.97480
2077.23220	0.97486
2075.30348	0.97486
2073.37475	0.97482
2071.44603	0.97474
2069.51731	0.97463
2067.58859	0.97454
2065.65987	0.97448
2063.73115	0.97447
2061.80243	0.97449
2059.87371	0.97453
2057.94499	0.97457
2056.01627	0.97463
2054.08755	0.97472
2052.15883	0.97487
2050.23011	0.97507
2048.30139	0.97529
2046.37266	0.97552
2044.44394	0.97577
2042.51522	0.97605
2040.58650	0.97633
2038.65778	0.97661
2036.72906	0.97690
2034.80034	0.97718
2032.87162	0.97744
2030.94290	0.97768
2029.01418	0.97790
2027.08546	0.97811
2025.15674	0.97831
2023.22802	0.97852
2021.29930	0.97872
2019.37057	0.97889
2017.44185	0.97902
2015.51313	0.97913
2013.58441	0.97923
2011.65569	0.97930
2009.72697	0.97935
2007.79825	0.97941
2005.86953	0.97950
2003.94081	0.97960
2002.01209	0.97967
2000.08337	0.97972
1998.15465	0.97975
1996.22593	0.97979
1994.29721	0.97982
1992.36849	0.97980
1990.43976	0.97968
1988.51104	0.97944
1986.58232	0.97905
1984.65360	0.97844
1982.72488	0.97759
1980.79616	0.97650
1978.86744	0.97525
1976.93872	0.97396
1975.01000	0.97275
1973.08128	0.97161
1971.15256	0.97049
1969.22384	0.96931
1967.29512	0.96806
1965.36640	0.96679
1963.43767	0.96558
1961.50895	0.96452
1959.58023	0.96365
1957.65151	0.96299
1955.72279	0.96252
1953.79407	0.96219
1951.86535	0.96199
1949.93663	0.96186
1948.00791	0.96172
1946.07919	0.96149
1944.15047	0.96122
1942.22175	0.96098
1940.29303	0.96083
1938.36431	0.96081
1936.43558	0.96087
1934.50686	0.96094
1932.57814	0.96101
1930.64942	0.96112
1928.72070	0.96134
1926.79198	0.96176
1924.86326	0.96240
1922.93454	0.96324
1921.00582	0.96425
1919.07710	0.96546
1917.14838	0.96689
1915.21966	0.96849
1913.29094	0.97018
1911.36222	0.97186
1909.43349	0.97346
1907.50477	0.97490
1905.57605	0.97612
1903.64733	0.97707
1901.71861	0.97775
1899.78989	0.97814
1897.86117	0.97823
1895.93245	0.97803
1894.00373	0.97763
1892.07501	0.97711
1890.14629	0.97658
1888.21757	0.97608
1886.28885	0.97560
1884.36013	0.97515
1882.43141	0.97477
1880.50268	0.97450
1878.57396	0.97436
1876.64524	0.97431
1874.71652	0.97439
1872.78780	0.97461
1870.85908	0.97499
1868.93036	0.97547
1867.00164	0.97599
1865.07292	0.97652
1863.14420	0.97695
1861.21548	0.97709
1859.28676	0.97684
1857.35804	0.97628
1855.42932	0.97555
1853.50059	0.97484
1851.57187	0.97424
1849.64315	0.97377
1847.71443	0.97337
1845.78571	0.97303
1843.85699	0.97278
1841.92827	0.97263
1839.99955	0.97260
1838.07083	0.97275
1836.14211	0.97314
1834.21339	0.97374
1832.28467	0.97452
1830.35595	0.97540
1828.42723	0.97624
1826.49850	0.97692
1824.56978	0.97732
1822.64106	0.97741
1820.71234	0.97724
1818.78362	0.97691
1816.85490	0.97651
1814.92618	0.97613
1812.99746	0.97582
1811.06874	0.97557
1809.14002	0.97532
1807.21130	0.97507
1805.28258	0.97490
1803.35386	0.97482
1801.42514	0.97477
1799.49641	0.97472
1797.56769	0.97466
1795.63897	0.97459
1793.71025	0.97456
1791.78153	0.97460
1789.85281	0.97468
1787.92409	0.97479
1785.99537	0.97498
1784.06665	0.97530
1782.13793	0.97579
1780.20921	0.97644
1778.28049	0.97723
1776.35177	0.97814
1774.42305	0.97912
1772.49433	0.98012
1770.56560	0.98110
1768.63688	0.98205
1766.70816	0.98289
1764.77944	0.98352
1762.85072	0.98391
1760.92200	0.98411
1758.99328	0.98417
1757.06456	0.98416
1755.13584	0.98418
1753.20712	0.98431
1751.27840	0.98437
1749.34968	0.98422
1747.42096	0.98386
1745.49224	0.98338
1743.56351	0.98278
1741.63479	0.98197
1739.70607	0.98093
1737.77735	0.97971
1735.84863	0.97830
1733.91991	0.97655
1731.99119	0.97434
1730.06247	0.97160
1728.13375	0.96839
1726.20503	0.96481
1724.27631	0.96080
1722.34759	0.95612
1720.41887	0.95056
1718.49015	0.94371
1716.56142	0.93493
1714.63270	0.92387
1712.70398	0.91016
1710.77526	0.89354
1708.84654	0.87321
1706.91782	0.84693
1704.98910	0.81222
1703.06038	0.76795
1701.13166	0.71525
1699.20294	0.65678
1697.27422	0.59559
1695.34550	0.53475
1693.41678	0.47758
1691.48806	0.42720
1689.55933	0.38585
1687.63061	0.35478
1685.70189	0.33447
1683.77317	0.32494
1681.84445	0.32582
1679.91573	0.33614
1677.98701	0.35463
1676.05829	0.37974
1674.12957	0.40901
1672.20085	0.43955
1670.27213	0.46866
1668.34341	0.49388
1666.41469	0.51401
1664.48597	0.52977
1662.55725	0.54323
1660.62852	0.55635
1658.69980	0.57038
1656.77108	0.58630
1654.84236	0.60494
1652.91364	0.62638
1650.98492	0.64999
1649.05620	0.67490
1647.12748	0.69979
1645.19876	0.72235
1643.27004	0.73962
1641.34132	0.74875
1639.41260	0.74778
1637.48388	0.73601
1635.55516	0.71374
1633.62643	0.68232
1631.69771	0.64414
1629.76899	0.60177
1627.84027	0.55776
1625.91155	0.51494
1623.98283	0.47610
1622.05411	0.44366
1620.12539	0.41960
1618.19667	0.40502
1616.26795	0.39965
1614.33923	0.40255
1612.41051	0.41305
1610.48179	0.43067
1608.55307	0.45416
1606.62434	0.48124
1604.69562	0.50948
1602.76690	0.53702
1600.83818	0.56249
1598.90946	0.58470
1596.98074	0.60241
1595.05202	0.61477
1593.12330	0.62176
1591.19458	0.62412
1589.26586	0.62311
1587.33714	0.62012
1585.40842	0.61640
1583.47970	0.61278
1581.55098	0.60948
1579.62225	0.60603
1577.69353	0.60131
1575.76481	0.59443
1573.83609	0.58567
1571.90737	0.57588
1569.97865	0.56549
1568.04993	0.55471
1566.12121	0.54397
1564.19249	0.53361
1562.26377	0.52342
1560.33505	0.51228
1558.40633	0.49821
1556.47761	0.47915
1554.54889	0.45413
1552.62017	0.42374
1550.69144	0.39024
1548.76272	0.35694
1546.83400	0.32700
1544.90528	0.30302
1542.97656	0.28692
1541.04784	0.27963
1539.11912	0.28101
1537.19040	0.29060
1535.26168	0.30833
1533.33296	0.33411
1531.40424	0.36763
1529.47552	0.40849
1527.54680	0.45586
1525.61808	0.50799
1523.68935	0.56200
1521.76063	0.61433
1519.83191	0.66170
1517.90319	0.70213
1515.97447	0.73475
1514.04575	0.75925
1512.11703	0.77632
1510.18831	0.78727
1508.25959	0.79165
1506.33087	0.78646
1504.40215	0.76851
1502.47343	0.73693
1500.54471	0.69441
1498.61599	0.64615
1496.68726	0.59739
1494.75854	0.55216
1492.82982	0.51350
1490.90110	0.48372
1488.97238	0.46443
1487.04366	0.45651
1485.11494	0.46017
1483.18622	0.47516
1481.25750	0.50071
1479.32878	0.53542
1477.40006	0.57712
1475.47134	0.62277
1473.54262	0.66871
1471.61390	0.71059
1469.68517	0.74326
1467.75645	0.76281
1465.82773	0.76924
1463.89901	0.76617
1461.97029	0.75873
1460.04157	0.75120
1458.11285	0.74564
1456.18413	0.74280
1454.25541	0.74290
1452.32669	0.74574
1450.39797	0.75055
1448.46925	0.75631
1446.54053	0.76230
1444.61181	0.76829
1442.68309	0.77440
1440.75436	0.78088
1438.82564	0.78775
1436.89692	0.79439
1434.96820	0.80024
1433.03948	0.80594
1431.11076	0.81279
1429.18204	0.82002
1427.25332	0.82358
1425.32460	0.81921
1423.39588	0.80583
1421.46716	0.78567
1419.53844	0.76187
1417.60972	0.73708
1415.68100	0.71315
1413.75227	0.69123
1411.82355	0.67200
1409.89483	0.65577
1407.96611	0.64254
1406.03739	0.63202
1404.10867	0.62429
1402.17995	0.62022
1400.25123	0.62104
1398.32251	0.62770
1396.39379	0.64051
1394.46507	0.65883
1392.53635	0.68019
1390.60763	0.69999
1388.67891	0.71408
1386.75018	0.72224
1384.82146	0.72769
1382.89274	0.73379
1380.96402	0.74199
1379.03530	0.75224
1377.10658	0.76389
1375.17786	0.77575
1373.24914	0.78594
1371.32042	0.79210
1369.39170	0.79199
1367.46298	0.78422
1365.53426	0.76810
1363.60554	0.74279
1361.67682	0.70732
1359.74809	0.66205
1357.81937	0.60975
1355.89065	0.55529
1353.96193	0.50389
1352.03321	0.45935
1350.10449	0.42275
1348.17577	0.39294
1346.24705	0.36896
1344.31833	0.35176
1342.38961	0.34367
1340.46089	0.34670
1338.53217	0.36166
1336.60345	0.38806
1334.67473	0.42429
1332.74601	0.46800
1330.81728	0.51624
1328.88856	0.56535
1326.95984	0.61115
1325.03112	0.65005
1323.10240	0.68073
1321.17368	0.70430
1319.24496	0.72317
1317.31624	0.73930
1315.38752	0.75248
1313.45880	0.75982
1311.53008	0.75745
1309.60136	0.74358
1307.67264	0.71986
1305.74392	0.68958
1303.81519	0.65529
1301.88647	0.61781
1299.95775	0.57701
1298.02903	0.53278
1296.10031	0.48581
1294.17159	0.43804
1292.24287	0.39208
1290.31415	0.34989
1288.38543	0.31214
1286.45671	0.27903
1284.52799	0.25129
1282.59927	0.23039
1280.67055	0.21807
1278.74183	0.21563
1276.81310	0.22323
1274.88438	0.23972
1272.95566	0.26311
1271.02694	0.29083
1269.09822	0.31989
1267.16950	0.34758
1265.24078	0.37238
1263.31206	0.39394
1261.38334	0.41275
1259.45462	0.42998
1257.52590	0.44735
1255.59718	0.46647
1253.66846	0.48769
1251.73974	0.50972
1249.81101	0.53081
1247.88229	0.55033
1245.95357	0.56919
1244.02485	0.58906
1242.09613	0.61121
1240.16741	0.63557
1238.23869	0.66020
1236.30997	0.68209
1234.38125	0.69859
1232.45253	0.70838
1230.52381	0.71176
1228.59509	0.71013
1226.66637	0.70491
1224.73765	0.69714
1222.80893	0.68802
1220.88020	0.67919
1218.95148	0.67184
1217.02276	0.66587
1215.09404	0.66020
1213.16532	0.65381
1211.23660	0.64653
1209.30788	0.63902
1207.37916	0.63247
1205.45044	0.62818
1203.52172	0.62698
1201.59300	0.62883
1199.66428	0.63318
1197.73556	0.63991
1195.80684	0.64949
1193.87811	0.66209
1191.94939	0.67706
1190.02067	0.69270
1188.09195	0.70585
1186.16323	0.71269
1184.23451	0.71080
1182.30579	0.70051
1180.37707	0.68400
1178.44835	0.66353
1176.51963	0.64103
1174.59091	0.61836
1172.66219	0.59627
1170.73347	0.57405
1168.80475	0.55122
1166.87602	0.52898
1164.94730	0.50953
1163.01858	0.49494
1161.08986	0.48683
1159.16114	0.48625
1157.23242	0.49349
1155.30370	0.50799
1153.37498	0.52822
1151.44626	0.55162
1149.51754	0.57502
1147.58882	0.59612
1145.66010	0.61520
1143.73138	0.63492
1141.80266	0.65790
1139.87393	0.68482
1137.94521	0.71458
1136.01649	0.74493
1134.08777	0.77285
1132.15905	0.79570
1130.23033	0.81220
1128.30161	0.82170
1126.37289	0.82411
1124.44417	0.82073
1122.51545	0.81305
1120.58673	0.80094
1118.65801	0.78387
1116.72929	0.76303
1114.80057	0.74089
1112.87184	0.71955
1110.94312	0.70016
1109.01440	0.68335
1107.08568	0.66963
1105.15696	0.65957
1103.22824	0.65374
1101.29952	0.65264
1099.37080	0.65669
1097.44208	0.66600
1095.51336	0.68007
1093.58464	0.69765
1091.65592	0.71706
1089.72720	0.73711
1087.79848	0.75671
1085.86976	0.77343
1083.94103	0.78400
1082.01231	0.78733
1080.08359	0.78575
1078.15487	0.78294
1076.22615	0.78113
1074.29743	0.78067
1072.36871	0.78110
1070.43999	0.78204
1068.51127	0.78346
1066.58255	0.78552
1064.65383	0.78848
1062.72511	0.79276
1060.79639	0.79883
1058.86767	0.80699
1056.93894	0.81736
1055.01022	0.82973
1053.08150	0.84335
1051.15278	0.85663
1049.22406	0.86695
1047.29534	0.87225
1045.36662	0.87330
1043.43790	0.87292
1041.50918	0.87307
1039.58046	0.87406
1037.65174	0.87566
1035.72302	0.87761
1033.79430	0.87973
1031.86558	0.88187
1029.93685	0.88373
1028.00813	0.88499
1026.07941	0.88551
1024.15069	0.88545
1022.22197	0.88502
1020.29325	0.88455
1018.36453	0.88456
1016.43581	0.88517
1014.50709	0.88515
1012.57837	0.88304
1010.64965	0.87897
1008.72093	0.87419
1006.79221	0.86970
1004.86349	0.86594
1002.93476	0.86306
1001.00604	0.86119
999.07732	0.86046
997.14860	0.86091
995.21988	0.86240
993.29116	0.86447
991.36244	0.86659
989.43372	0.86856
987.50500	0.87057
985.57628	0.87266
983.64756	0.87469
981.71884	0.87664
979.79012	0.87837
977.86140	0.87886
975.93268	0.87671
974.00395	0.87208
972.07523	0.86684
970.14651	0.86257
968.21779	0.85978
966.28907	0.85870
964.36035	0.85903
962.43163	0.85928
960.50291	0.85757
958.57419	0.85348
956.64547	0.84828
954.71675	0.84340
952.78803	0.83973
950.85931	0.83771
948.93059	0.83744
947.00186	0.83872
945.07314	0.84145
943.14442	0.84577
941.21570	0.85169
939.28698	0.85907
937.35826	0.86769
935.42954	0.87674
933.50082	0.88458
931.57210	0.88990
929.64338	0.89281
927.71466	0.89394
925.78594	0.89298
923.85722	0.88915
921.92850	0.88285
919.99977	0.87614
918.07105	0.87098
916.14233	0.86798
914.21361	0.86664
912.28489	0.86600
910.35617	0.86510
908.42745	0.86332
906.49873	0.86037
904.57001	0.85639
902.64129	0.85197
900.71257	0.84766
898.78385	0.84346
896.85513	0.83865
894.92641	0.83285
892.99768	0.82713
891.06896	0.82355
889.14024	0.82368
887.21152	0.82858
885.28280	0.83863
883.35408	0.85151
881.42536	0.86239
879.49664	0.86788
877.56792	0.86803
875.63920	0.86414
873.71048	0.85693
871.78176	0.84669
869.85304	0.83369
867.92432	0.81833
865.99560	0.80143
864.06687	0.78431
862.13815	0.76830
860.20943	0.75396
858.28071	0.74061
856.35199	0.72768
854.42327	0.71649
852.49455	0.70960
850.56583	0.70814
848.63711	0.71024
846.70839	0.71209
844.77967	0.71024
842.85095	0.70400
840.92223	0.69612
838.99351	0.69033
837.06478	0.68859
835.13606	0.69105
833.20734	0.69701
831.27862	0.70523
829.34990	0.71414
827.42118	0.72216
825.49246	0.72818
823.56374	0.73154
821.63502	0.73164
819.70630	0.72834
817.77758	0.72309
815.84886	0.71845
813.92014	0.71569
811.99142	0.71376
810.06269	0.71123
808.13397	0.70878
806.20525	0.70870
804.27653	0.71242
802.34781	0.71983
800.41909	0.73031
798.49037	0.74304
796.56165	0.75688
794.63293	0.77066
792.70421	0.78317
790.77549	0.79331
788.84677	0.80054
786.91805	0.80517
784.98933	0.80796
783.06060	0.80971
781.13188	0.81115
779.20316	0.81293
777.27444	0.81549
775.34572	0.81904
773.41700	0.82344
771.48828	0.82836
769.55956	0.83322
767.63084	0.83633
765.70212	0.83493
763.77340	0.82794
761.84468	0.81687
759.91596	0.80395
757.98724	0.79099
756.05852	0.77944
754.12979	0.77026
752.20107	0.76408
750.27235	0.76140
748.34363	0.76257
746.41491	0.76763
744.48619	0.77631
742.55747	0.78825
740.62875	0.80283
738.70003	0.81940
736.77131	0.83712
734.84259	0.85482
732.91387	0.87114
730.98515	0.88445
729.05643	0.89287
727.12770	0.89593
725.19898	0.89604
723.27026	0.89631
721.34154	0.89759
719.41282	0.89851
717.48410	0.89726
715.55538	0.89360
713.62666	0.88955
711.69794	0.88724
709.76922	0.88499
707.84050	0.87705
705.91178	0.85808
703.98306	0.82734
702.05434	0.78907
700.12561	0.74933
698.19689	0.71272
696.26817	0.68196
694.33945	0.65818
692.41073	0.64122
690.48201	0.63050
688.55329	0.62604
686.62457	0.62883
684.69585	0.63945
682.76713	0.65652
680.83841	0.67821
678.90969	0.70402
676.98097	0.73462
675.05225	0.76968
673.12352	0.80557
671.19480	0.83576
669.26608	0.85540
667.33736	0.86472
665.40864	0.86762
663.47992	0.86847
661.55120	0.86978
659.62248	0.87211
657.69376	0.87493
655.76504	0.87711
653.83632	0.87780
651.90760	0.87716
649.97888	0.87624
648.05016	0.87620
646.12144	0.87700
644.19271	0.87793
642.26399	0.87911
640.33527	0.88111
638.40655	0.88406
636.47783	0.88771
634.54911	0.89181
632.62039	0.89632
630.69167	0.90110
628.76295	0.90566
626.83423	0.90964
624.90551	0.91272
622.97679	0.91334
621.04807	0.90929
619.11935	0.90025
617.19062	0.88807
615.26190	0.87477
613.33318	0.86167
611.40446	0.84956
609.47574	0.83879
607.54702	0.82948
605.61830	0.82186
603.68958	0.81631
601.76086	0.81319
599.83214	0.81268
597.90342	0.81490
595.97470	0.81996
594.04598	0.82788
592.11726	0.83836
590.18853	0.85066
588.25981	0.86347
586.33109	0.87446
584.40237	0.88122
582.47365	0.88375
580.54493	0.88480
578.61621	0.88684
576.68749	0.89018
574.75877	0.89276
572.83005	0.89078
570.90133	0.88155
568.97261	0.86589
567.04389	0.84688
565.11517	0.82716
563.18644	0.80852
561.25772	0.79222
559.32900	0.77905
557.40028	0.76932
555.47156	0.76300
553.54284	0.75990
551.61412	0.75983
549.68540	0.76278
547.75668	0.76889
545.82796	0.77818
543.89924	0.79026
541.97052	0.80436
540.04180	0.81913
538.11308	0.83207
536.18436	0.83989
534.25563	0.84075
532.32691	0.83630
530.39819	0.83026
528.46947	0.82513
526.54075	0.82148
524.61203	0.81941
522.68331	0.81912
520.75459	0.82065
518.82587	0.82367
516.89715	0.82766
514.96843	0.83209
513.03971	0.83674
511.11099	0.84164
509.18227	0.84696
507.25354	0.85268
505.32482	0.85851
503.39610	0.86409
501.46738	0.86917
499.53866	0.87358
497.60994	0.87730
495.68122	0.88048
493.75250	0.88344
491.82378	0.88641
489.89506	0.88945
487.96634	0.89271
486.03762	0.89663
484.10890	0.90163
482.18018	0.90723
480.25145	0.91235
478.32273	0.91637
476.39401	0.91921
474.46529	0.92095
472.53657	0.92197
470.60785	0.92271
468.67913	0.92335
466.75041	0.92422
464.82169	0.92596
462.89297	0.92818
460.96425	0.92849
459.03553	0.92476
457.10681	0.91748
455.17809	0.90869
453.24936	0.89964
451.32064	0.89076
449.39192	0.88292
447.46320	0.87722
445.53448	0.87388
443.60576	0.87241
441.67704	0.87261
439.74832	0.87481
437.81960	0.87914
435.89088	0.88541
433.96216	0.89358
432.03344	0.90397
430.10472	0.91708
428.17600	0.93259
426.24728	0.94838
424.31855	0.96139
422.38983	0.96998
420.46111	0.97478
418.53239	0.97853
416.60367	0.97853
414.67495	0.97853
412.74623	0.97853
410.81751	0.97853
408.88879	0.97853
406.96007	0.97853
405.03135	0.97853
403.10263	0.97853
401.17391	0.97853
399.24519	0.97853
